1.597325949599052608e+00,1.888069511261869504e-01,-1.337871550984368829e+00,-2.633125483989115168e+00,-3.281357400583505779e+00,-3.368460089623597220e+00,-3.076159205989298151e+00,-2.514597172162890359e+00,-1.938525534082875090e+00,-1.275292505123745590e+00,-9.106667847892131462e-01,-8.579013813515186104e-01,-6.625164112912205194e-01,-9.496997996940997888e-02,2.689106836882775853e-01,1.661407069662481084e-01,4.257346890173044351e-02,1.631319261379441110e-01,2.067385417559139682e-01,2.460390856503593682e-01,2.401995904740179544e-01,2.218457016791042513e-01,1.913015405709319050e-01,2.774649065429151129e-01,2.052636709542091376e-01,2.288794562680226130e-01,1.373926235573197374e-01,8.239701396928161836e-02,1.479508680709571977e-01,1.496448833760962716e-01,8.644911976018060384e-02,2.457320537957125017e-02,6.169997970276985821e-02,-4.302753152042793072e-02,9.771286003471602033e-03,-1.057720989979429316e-01,-1.787826037840588578e-01,-9.819679059757441264e-02,-1.309458185606604541e-01,-1.358844282781411228e-01,-2.454562333770387850e-01,-1.062638703587738265e-01,-1.838018406930237991e-01,-2.893859586994388389e-01,-2.381892778843195946e-01,-2.946358966980637262e-01,-2.212653621612127308e-01,-3.412694594490608413e-01,-3.504539976172100224e-01,-3.535265517439236671e-01,-4.290321570064262735e-01,-4.416972952465079705e-01,-3.682538048518853580e-01,-3.672989831517887716e-01,-2.819713612628049759e-01,-1.515317613721938184e-01,-1.350466025199351383e-01,-6.903913811464282291e-02,-7.758587091300353511e-02,-2.076542201445741309e-02,1.245595855334530322e-02,6.968350479093782246e-02,1.994102798004695476e-01,2.304721500047322569e-01,2.600745102434449674e-01,3.447701914849577998e-01,3.151844988132990744e-01,3.238063501702216351e-01,4.774472843786646825e-01,5.843596884276394121e-01,5.392171182401388485e-01,4.501980498475531278e-01,5.189436984276332154e-01,4.279491102726002971e-01,5.379697093599986601e-01,4.537747406204952205e-01,5.715424411469616217e-01,5.519532714927961603e-01,5.299910492119979111e-01,5.837814905036310398e-01,5.831971785564942223e-01,5.832059618883350671e-01,6.014007847693816355e-01,6.243095878968678569e-01,6.317894718807539611e-01,6.226532333518194351e-01,6.377472035879934165e-01,5.958826979441659288e-01,6.949744350486423139e-01,6.805373513978765221e-01,6.411217434600146037e-01,7.506340173081281764e-01,7.440150477557145869e-01,7.415472387531981679e-01,7.263341021097041716e-01,8.183519929106572999e-01,9.082155673176935951e-01,8.549499700548537362e-01,8.708834531406070001e-01,9.119922802852240551e-01,9.283713962418714827e-01,1.001566002277859191e+00,9.638390934433749280e-01,9.492399446575194855e-01,1.001176803248315927e+00,1.007948294132344991e+00,1.052658897186288911e+00,1.120751097596769164e+00,1.065457099995305024e+00,9.908723209514647134e-01,1.052975008535395052e+00,1.018061305833313668e+00,9.740728387442696423e-01,9.853945155347979545e-01,9.704403337277207608e-01,9.188836978187223670e-01,9.230796742301546898e-01,8.398462373135034964e-01,6.327882025811463196e-01,4.718425516170946521e-01,4.126783350286776231e-01,4.490758739463713844e-01,3.259669787246858297e-01,2.413607239964855045e-01,1.577911756554717937e-01,-6.833401605436251192e-02,-2.465057659543767321e-01,-1.866322574436499460e-01,-6.012323004286302536e-02,-1.357640130845838566e-01,-4.881428322068347425e-01,-9.683877128040662141e-01,-1.629269741577756836e+00,-2.068376840083196555e+00,-2.410876762856432265e+00,-2.937046246384037662e+00,-3.425929277973614351e+00,-3.026703089438614658e+00,-1.858744481191435538e+00,-4.860083378741258398e-01
3.442361810046833948e-01,-7.559839600779791891e-01,-1.622039628559841073e+00,-2.604217867805999731e+00,-3.099807510904468266e+00,-3.123191200809836587e+00,-2.988457180197556351e+00,-2.541487215910325226e+00,-1.913737892988204070e+00,-1.434169715541252721e+00,-1.046533871723767994e+00,-7.813373995434933494e-01,-7.038367553048903158e-01,-5.579211828041431565e-01,-1.936625800167236233e-01,2.482684642546933440e-01,5.089631510732498532e-01,5.473892707589355089e-01,5.482568191737617891e-01,5.442270486408302688e-01,5.180672840630238252e-01,5.024346443454184019e-01,5.028527935180093777e-01,5.052888875011893877e-01,5.065101456896607957e-01,5.299860157727908083e-01,5.329775624012280666e-01,4.671877591817884534e-01,4.194072096226860724e-01,4.102270046468941556e-01,3.901433648366774420e-01,4.270975877740467719e-01,4.868857871003606785e-01,4.348793951848818340e-01,4.110805521990459899e-01,4.671101004840889637e-01,3.864261247564227952e-01,3.199604553823869324e-01,3.932888381257013122e-01,3.846623765243241122e-01,3.394576417344335462e-01,3.485628669282271330e-01,2.879277073873706128e-01,2.312346988231468170e-01,2.570115806074773634e-01,2.339092853563990992e-01,2.144151638775186330e-01,2.732339781403430035e-01,2.496775154831907539e-01,1.619486407322040522e-01,1.452730503241705939e-01,1.635765096888225356e-01,1.563867318415637087e-01,1.056823406394207243e-01,6.820747913562338893e-02,7.385349231695756411e-02,3.359593279161132012e-02,-8.024147144397916764e-02,-1.358269771561294026e-01,-7.254300742000463487e-02,2.061757838513311736e-03,-1.803310459674736799e-02,-1.032231024209207537e-01,-1.244866775820580584e-01,-8.612197262045231949e-02,-9.347868505561118813e-02,-1.166896347637662590e-01,-1.336391132458305542e-01,-1.311780036729798260e-01,-3.536615482172622560e-02,6.504597051045701850e-02,6.441424664004841150e-02,2.843591663141231685e-02,1.002448425536677235e-01,2.562690060131037617e-01,3.020598946018785425e-01,3.051020379601544485e-01,3.970769028265460077e-01,4.281571994674532311e-01,4.111564484071491554e-01,4.739616299441186675e-01,5.419321904439221571e-01,6.003149772513601823e-01,6.889071859322932756e-01,6.974676513333991634e-01,6.600627328481201150e-01,7.064723289145531382e-01,7.617855587335705669e-01,8.158722373880478163e-01,8.164856955788202253e-01,7.498690511873158382e-01,8.126124782388916001e-01,8.688343419716106908e-01,8.142699417563938891e-01,8.320424099355915315e-01,8.534798964238123897e-01,8.277969302515881811e-01,7.866077543248947146e-01,7.483780506468520333e-01,8.289327192412689893e-01,9.379098332303141827e-01,9.132393612943150440e-01,8.219970087456409669e-01,8.144184098481966894e-01,9.015083075121766987e-01,9.259281149552355261e-01,8.620301664004464959e-01,8.236180431009934022e-01,8.145009710046798856e-01,8.284041374526691648e-01,8.399195413444532354e-01,8.038548495649981973e-01,8.007505842241937621e-01,8.204321805995740124e-01,6.963951755038455538e-01,5.002339112703735324e-01,4.232945338203171759e-01,3.899664363488789531e-01,3.036556110450257528e-01,2.971964380457219890e-01,2.870092936849388265e-01,1.267352486920552690e-01,7.928977984954821423e-02,3.851614617411083796e-03,-2.383222419181406648e-01,-1.778686366796551899e-01,-1.002470599831425530e-01,-4.357383934432024208e-01,-8.029910348170520296e-01,-1.168415974858413309e+00,-1.687894458827102540e+00,-2.128467851419771240e+00,-2.486562336795492989e+00,-2.849053494566769817e+00,-3.084408823395199839e+00,-3.236642203592874800e+00,-2.857553046970127575e+00,-1.729308445948692707e+00,-6.020274996688521618e-01,7.386944574504530348e-01
9.484844235105323040e-01,-4.905093506978999152e-01,-1.737796532817208917e+00,-2.834863904464205220e+00,-3.225330611530075497e+00,-3.150615095714155878e+00,-2.790857612182345626e+00,-2.518336493020994826e+00,-2.035223664279730560e+00,-1.381459294657836345e+00,-9.589777282448972429e-01,-7.957930005969403586e-01,-7.201637202257998860e-01,-3.961849657989692242e-01,5.477618115133509047e-02,3.520006210549953551e-01,4.936981731412900531e-01,4.801018638399799920e-01,4.161549634524968067e-01,4.028806780601013604e-01,3.591668488839017681e-01,4.144781164720492406e-01,4.940482836037317083e-01,4.050159107340062237e-01,3.399398586099837694e-01,3.852160685364062198e-01,4.643573425906949992e-01,4.262142004842788268e-01,3.269501743855588449e-01,3.667137450094350437e-01,3.977488638657730169e-01,3.317492017889575595e-01,3.252605532219060569e-01,3.391484247803566721e-01,2.786602986830060691e-01,2.662105166669673784e-01,2.602322321900687463e-01,1.747187941895189667e-01,2.123077870111455545e-01,2.301642070405746088e-01,1.310650637280201258e-01,9.638378656750701268e-02,9.216545108285889576e-02,1.255412732838091794e-01,8.823462689022559813e-02,4.969616833399613520e-02,7.007496894607410931e-02,-1.832630966305047460e-02,-7.268699619273201462e-02,-7.882761552714119546e-02,-1.142510304631510210e-01,-1.215995094886446748e-01,-1.526410744425466814e-01,-1.951819467651193796e-01,-1.755243209688139849e-01,-1.790216099704120822e-01,-1.956673530178829057e-01,-1.576351099523455868e-01,-1.494543514841643606e-01,-2.110868214014551270e-01,-2.229848856134097335e-01,-1.313226264828232237e-01,-1.447069224865590864e-01,-1.605867407595145679e-01,-9.826108536545788419e-02,-1.221049677131544886e-01,-5.183291385916771743e-02,6.034262822299607532e-02,7.553670461304856643e-02,1.079412042358847690e-01,1.687427798852674521e-01,2.345168620342627241e-01,2.498996637414401256e-01,2.575087962806967279e-01,3.673378138190194209e-01,4.425162877979256226e-01,4.593960998259538075e-01,5.466387610021997689e-01,5.447981606964809043e-01,4.914824192153507965e-01,5.340463399446507831e-01,5.916890999517175898e-01,6.529097553338732984e-01,6.554010510156560443e-01,5.702088524476345288e-01,5.934762455989112118e-01,6.784794980415598253e-01,7.085333783073610725e-01,7.315241269469390240e-01,6.650583824400111421e-01,5.960177056333928469e-01,6.455204373976766163e-01,7.237850424599638899e-01,7.274737625372955652e-01,7.044488613696231472e-01,7.166458597620939397e-01,6.694294803622228285e-01,6.788838599482839298e-01,7.399458188975884809e-01,7.546748665991044325e-01,7.812904134633544828e-01,7.401894464092102499e-01,7.513775057707120508e-01,7.891318141929950514e-01,8.121179070470232464e-01,8.266498333075014138e-01,7.937412686274730733e-01,8.942481641470330089e-01,9.178323472803244787e-01,9.253126303299162858e-01,1.035577712137446760e+00,1.022830387290335707e+00,1.055371568242514435e+00,1.073112818720191708e+00,9.457875396323096595e-01,8.544429132112157932e-01,7.616213253020986951e-01,6.378578608280655038e-01,6.101131780977061547e-01,5.931765093758850638e-01,5.099194499955317372e-01,3.179346440773517246e-01,7.603194193824039382e-02,-4.140612558887193234e-02,-1.218445095849469695e-01,-1.314295594649478316e-01,4.099183421630865631e-02,-6.880943402706618528e-03,-3.433656301488262064e-01,-7.569047077781470012e-01,-1.369265658298941313e+00,-1.932939746661596736e+00,-2.423656051800367361e+00,-2.979110088477448848e+00,-3.347758921230881590e+00,-3.389229353277726009e+00,-2.707859800108274761e+00,-1.364878802342891939e+00,-2.849398446812808627e-01,1.280254387303190411e+00
1.503197079030781147e+00,4.877925742764801509e-01,-6.054295080238820681e-01,-1.559705429977086499e+00,-2.390962652566939184e+00,-2.812808208474685490e+00,-2.785565780438170602e+00,-2.579222275103779438e+00,-2.327241831175412834e+00,-1.946485717381461589e+00,-1.386446867384354187e+00,-9.218004375757957725e-01,-6.893836893852504089e-01,-5.267958351388911664e-01,-4.041295364033646309e-01,-1.826590105024598898e-01,2.135580809278649073e-01,5.000799848128775205e-01,6.034053701139385772e-01,6.310106386782039500e-01,5.946448834993647292e-01,5.658514840084049036e-01,5.725758223710617489e-01,6.139764700863696856e-01,6.218423531664043491e-01,5.648507089596328523e-01,6.386511608637117643e-01,7.183908184119784934e-01,6.133032860403200281e-01,5.775087041655206921e-01,6.148357969371573972e-01,5.600191079377889736e-01,5.354754135609888221e-01,5.561882883548450174e-01,5.654373068640308198e-01,5.399905495131129829e-01,4.575267866223752256e-01,3.922887963101460151e-01,3.469901042593241391e-01,3.157843017322898849e-01,3.730475638443335185e-01,4.470969035591790819e-01,4.417704032262488312e-01,3.681837906933824733e-01,2.883153048770007998e-01,2.750979765417814193e-01,2.976334958898004812e-01,2.767051267830032968e-01,2.378717942191096446e-01,2.249656452467533874e-01,2.274373201982007320e-01,2.106523762936668154e-01,1.634501621058878640e-01,1.190766583687131452e-01,8.781921980511935011e-02,5.329666369050874153e-02,4.871626568963090265e-02,9.724716592676030391e-02,1.110803400207142355e-01,1.322924473789667543e-02,-1.070587911156756500e-01,-1.231250850975051936e-01,-8.476934263282276394e-02,-8.264905848470521788e-02,-8.877554408668272834e-02,-8.411695557757348229e-02,-8.719461877499279367e-02,-8.903183762837429960e-02,-5.645506812433442878e-02,3.784999466342514607e-02,4.718715554832791925e-02,-5.091666188652699265e-02,-3.120814427787665934e-02,3.999325097361217107e-02,4.665620707186363125e-02,9.412959839550782970e-02,1.413018675683995196e-01,2.085244964705373905e-01,3.112389538952492485e-01,3.343078807558527155e-01,3.767603740248658406e-01,4.654958092006919457e-01,4.364907211295708800e-01,4.210609397507590335e-01,5.597035182945345744e-01,6.304887207059929333e-01,6.041746152885767440e-01,6.789280439895203356e-01,7.295794083210833669e-01,6.945913602083073624e-01,7.314858618294258763e-01,7.504174089039301609e-01,6.944276270026836784e-01,7.034090753978667898e-01,7.734149644824425129e-01,8.184950020342531829e-01,8.419892677326769048e-01,8.535907550705427171e-01,8.225235613394695777e-01,7.933381022804062432e-01,8.256073987754118937e-01,8.059772652987224895e-01,7.125539364193577141e-01,7.202509135029698806e-01,8.234859787815498322e-01,8.759927949329360253e-01,8.686598132217864254e-01,8.087931905604901495e-01,7.208455327033351789e-01,7.386364436753067864e-01,8.030390720929228010e-01,7.130952033750639352e-01,5.785105758587421043e-01,4.819928760458054295e-01,3.747331410682751551e-01,3.970322457531074711e-01,4.503117034569139587e-01,3.344556836771626629e-01,2.371781237497442851e-01,2.166536426939046356e-01,1.113128138731212108e-01,-6.920134537115651963e-03,-5.970967211362866039e-02,-1.039959799994997491e-01,-7.748778029436899362e-02,-7.999696373383155534e-02,-3.391759357214570447e-01,-6.892450552891596915e-01,-1.029528496274042082e+00,-1.588384059003830950e+00,-2.220144197275289777e+00,-2.580733827490302446e+00,-2.869108944694316321e+00,-3.236734514798036422e+00,-3.416527695701723655e+00,-3.271639729420279696e+00,-2.508172994297093616e+00,-1.254226834952293590e+00,-1.648099780843031437e-01,9.919379925201319281e-01
1.856910490364916289e+00,7.955804540544020309e-01,-6.311939020389925048e-01,-1.842691281035954365e+00,-2.924780208349279320e+00,-3.251656699825824060e+00,-3.299728114812270352e+00,-3.071661564807084854e+00,-2.673127646843730165e+00,-2.106643427883311936e+00,-1.560337372964728520e+00,-1.089325209895426028e+00,-9.386936876748712688e-01,-9.310074524933139584e-01,-5.207118879288294977e-01,-5.229163246115525743e-03,2.258479720222722753e-01,2.594729619915586705e-01,2.459868800546108625e-01,2.985040335921421706e-01,3.152935626408269187e-01,2.274679737581270234e-01,2.497592883737603797e-01,3.234340890478994979e-01,2.832908024725988572e-01,2.541707272048971955e-01,2.476694198356213517e-01,2.177434905726313707e-01,2.595868729346600956e-01,2.689282185123713087e-01,2.294432372460586400e-01,2.318107770125166778e-01,1.935621052306313317e-01,1.526001148078707237e-01,1.288893700075167126e-01,1.768272102913367450e-01,1.704631168938197661e-01,1.418007301557618893e-01,1.078141453150651130e-01,2.884279340239231937e-02,9.148350090759393982e-02,5.225877835022174622e-02,3.305784719197779609e-02,3.133792960841033648e-02,-1.218748026650108007e-01,-1.359816803338011471e-01,-8.356639856481037909e-02,-1.264088761603553435e-01,-1.815636634702562369e-01,-2.445005333592130126e-01,-2.027376485760714608e-01,-2.363642091112165278e-01,-3.325670264355609640e-01,-3.631686914676430789e-01,-3.991057626680217241e-01,-3.370658175918092025e-01,-3.119593173956936583e-01,-2.785818268213028914e-01,-2.609065005246771207e-01,-2.506593678228987709e-01,-2.129328404621486648e-01,-2.494079499363128227e-01,-2.401985560285679333e-01,-1.975152823378613642e-01,-2.008338868283793544e-01,-1.582526421208526601e-01,-7.863115325585678939e-02,4.380060499699373056e-02,1.381642316018810435e-01,2.015886384723581393e-01,3.222216273858472535e-01,3.297400902949534363e-01,3.209713173834839450e-01,4.239202390378131735e-01,4.687699092736030693e-01,4.562072287217004418e-01,4.943057598736567693e-01,5.282094193057456089e-01,5.685951103051145594e-01,5.980733689482105042e-01,5.771158181686765198e-01,6.505425943274574241e-01,6.275638057540455783e-01,6.056907037745281608e-01,6.659919048261763175e-01,6.377905554598403137e-01,7.007019715462876608e-01,7.176484356319841051e-01,6.673040065317621394e-01,6.594648080681642099e-01,6.671826313183566448e-01,6.919286246199548573e-01,7.112891475484607318e-01,7.780297457229978786e-01,8.221893635967663094e-01,7.586495463992783961e-01,7.766457933671041536e-01,7.956323048233460149e-01,7.663438206926471707e-01,8.189468182104358007e-01,8.658850021604866942e-01,8.174461718745587024e-01,7.877692438579115830e-01,8.884397954454497093e-01,9.142595703512546024e-01,9.249190042936012990e-01,9.673709788566164924e-01,9.843232692704991793e-01,1.027271201916156507e+00,1.066266899231761878e+00,1.093219691693915641e+00,1.063653506222146827e+00,1.095778380527423712e+00,1.043837327221719180e+00,9.990287128388344318e-01,9.812664891603191109e-01,8.521684465857993773e-01,7.360082133426970596e-01,6.014342266456504937e-01,6.115843214517328041e-01,4.822423167665277899e-01,3.419589392519942761e-01,2.010202757022158115e-01,-5.438364461992058890e-02,-3.042082164794657206e-02,9.009202492906120963e-02,1.054174355318519413e-01,-1.626130990554922329e-01,-6.304989335858299793e-01,-1.092983439685236924e+00,-1.576003743948795499e+00,-2.033726552805030785e+00,-2.420749875402825158e+00,-2.778726171033117254e+00,-2.972767158589428860e+00,-2.614981334559959958e+00,-1.589555041908548905e+00,-4.428837543688119993e-01,6.512471081265113204e-01,1.166897875657882055e+00
2.476589658898344370e-01,-7.919908500053216560e-01,-1.676662396582482506e+00,-2.800026782543263870e+00,-3.407032000019425411e+00,-3.650535283402366105e+00,-3.313550485169828086e+00,-2.792704781441174511e+00,-2.419937518182130987e+00,-1.811004124256121894e+00,-1.314146420971547657e+00,-1.154651624796829479e+00,-9.875670832738628890e-01,-7.907637312864524981e-01,-3.003254244099851644e-01,1.430402018742387149e-01,1.724438391732247278e-01,1.643638988986320382e-01,1.822129013589573743e-01,1.983072521526376142e-01,2.233471512976857309e-01,2.276060587790090517e-01,1.941490310870926939e-01,1.597259801710702865e-01,1.441109614694202901e-01,1.020972032705328159e-01,1.281124917315059619e-01,2.243231583006257690e-01,2.097983808299764830e-01,1.143809648529762746e-01,1.101928160571486459e-01,1.343296278082686812e-01,7.658718435448119699e-02,5.237944727751564500e-02,4.867145487357099620e-02,5.089312862384409719e-02,8.051718259556917001e-02,3.114206709152039787e-02,6.592813848630402207e-02,4.158022165757252475e-02,-6.671235607352621333e-02,-5.801649555884186293e-02,-1.096536417500521832e-01,-1.153113356443201815e-01,-1.032835481643248760e-01,-1.184845400043819802e-01,-7.664107101418866919e-02,-1.379844823085187022e-01,-2.097502341229945388e-01,-1.826969676456201563e-01,-1.626890064316285633e-01,-2.049150852971454162e-01,-2.597311006263474109e-01,-3.145717730990938987e-01,-3.343599801003812044e-01,-2.546252351667146474e-01,-1.946428518850498168e-01,-2.540221784218510415e-01,-2.991594593914386202e-01,-3.152613363763477339e-01,-3.113502973458620038e-01,-1.956557279207824518e-01,-2.187675721268687590e-01,-1.740838411544597397e-01,-5.908924194155398824e-02,-1.649815072057571608e-01,-2.889650286025780002e-02,1.118725416103796277e-01,1.379088245888369924e-01,1.843380928606382085e-01,2.039332174548271759e-01,3.824967116193503380e-01,3.447175086366581209e-01,3.014488149089619151e-01,4.632034595737443139e-01,5.110450498908327699e-01,5.097286399447068517e-01,5.534577211738173075e-01,6.623865979574519169e-01,6.681176880372818871e-01,6.131567237136267279e-01,6.759722291801515404e-01,7.283731667167192558e-01,7.133509481975753852e-01,7.284463545763764092e-01,8.176975483880679629e-01,7.584011865965233357e-01,7.142297108712293285e-01,8.147163060649579291e-01,7.489501065222324838e-01,7.652327018298601402e-01,8.308194067566508911e-01,7.886971668090244636e-01,8.430775949094171384e-01,8.459709142336977461e-01,8.209551358891575834e-01,8.878840164393780876e-01,8.970494168527582968e-01,8.857518780959124927e-01,9.033000700011654116e-01,8.500919365503053493e-01,8.121003396092904003e-01,8.483659002282915029e-01,9.544111509196600007e-01,1.014138791772839499e+00,9.691336576649653978e-01,9.685351305120439847e-01,9.564045531535090294e-01,9.644496488746397977e-01,1.049285894133275221e+00,1.105398193951992347e+00,1.080564624077413161e+00,1.038831277268256637e+00,1.007587232311607961e+00,8.439330586636450970e-01,7.393684736659619228e-01,7.493882858520899415e-01,7.085669970929785455e-01,7.171664337364795916e-01,6.281468001644014976e-01,5.054467644646515323e-01,4.457557037945478751e-01,3.226565048160439653e-01,2.668194558122077842e-01,3.854791253713764632e-01,5.423298060582103508e-01,3.874454816868855844e-01,1.416520239065668929e-02,-3.732886247668295021e-01,-9.175197158037371459e-01,-1.445931257000217407e+00,-1.818974140500987602e+00,-2.170539356171339307e+00,-2.610563006168665545e+00,-2.763202406917637521e+00,-2.235807486657352960e+00,-1.251812590359843824e+00,-5.068330361837138087e-02,8.978489684403432314e-01,1.656155520001111769e+00
1.106433927166065034e+00,4.203209366683924308e-02,-8.955143751805461072e-01,-1.815491024409149334e+00,-2.661493426941433427e+00,-3.207295502597143688e+00,-3.229629005905550354e+00,-2.914336411285261885e+00,-2.500016830560415126e+00,-2.024510572881846659e+00,-1.521572172800177203e+00,-1.040552215280060366e+00,-7.832398125617220375e-01,-7.673946482974974836e-01,-6.442048754654581266e-01,-3.024123330877589999e-01,6.986241452589220247e-02,3.570344563798988347e-01,4.415295005808538287e-01,3.236117107720570263e-01,2.877286198527908567e-01,3.964207771703635030e-01,4.114917520393407968e-01,3.389650571519816635e-01,3.187530620908430867e-01,3.255961731081155053e-01,3.221029524805376076e-01,3.073287795731827199e-01,2.972987702614813266e-01,3.622334873218307494e-01,3.826874719792743296e-01,3.440147775760095672e-01,3.615109052418638003e-01,2.849830221623653737e-01,2.446532945518776203e-01,3.218625215572016307e-01,2.808142657404970599e-01,2.295177422008094492e-01,1.984978728456558428e-01,1.975851729322932737e-01,2.589841324680359214e-01,1.978985276986415798e-01,1.834444415800290384e-01,2.095030086825331594e-01,1.496054474325455574e-01,1.825765268814805165e-01,1.635668468212029270e-01,9.041605772097296989e-02,8.121503198023721781e-02,-8.342154453863798169e-04,-4.852633908542894337e-02,-7.431147799802015341e-04,1.625676834040764435e-02,-3.411985457765581709e-02,-1.300425555009294687e-01,-1.600118748909360178e-01,-1.624897771862979234e-01,-2.207871841587881745e-01,-2.332277872753097392e-01,-1.919293933321133960e-01,-1.798626231675325426e-01,-2.272343211308260891e-01,-2.681758309126718309e-01,-2.180587433138564402e-01,-1.536979726037272787e-01,-1.613157646736084749e-01,-1.788128750216468887e-01,-1.670227293619667153e-01,-1.271659380952825380e-01,-3.878035038911420429e-02,3.854502775902418632e-02,2.915491572564898881e-02,1.885796598581424011e-02,1.025579973087473173e-01,1.479316308600790997e-01,1.407161191848249060e-01,2.267260131476520058e-01,3.186283633246190239e-01,3.521187205108116114e-01,4.044889653749237923e-01,4.801400404275982803e-01,6.071946101181729949e-01,7.139813325620979478e-01,6.443725709745845576e-01,5.855798238887204299e-01,7.170843490409306575e-01,7.943973272115707474e-01,7.815800796038863130e-01,8.202761330131931317e-01,8.104187331120167315e-01,8.202171683123911095e-01,8.783620403942508092e-01,8.678024406273412428e-01,8.618533225505764506e-01,8.847872597880566126e-01,9.353804601850416178e-01,1.001354085369869695e+00,1.020385495166220569e+00,1.013301202596290196e+00,9.781539935542772346e-01,9.555168317291760083e-01,9.930119734490403527e-01,1.019794894978819366e+00,1.020476408008164304e+00,1.018441512909107338e+00,9.974656587397059404e-01,9.784667293692868029e-01,9.827719854122298759e-01,1.016825000413154045e+00,1.068026602463010510e+00,1.071603189250492028e+00,1.018982801143977879e+00,9.867011868255133322e-01,9.367374023840799868e-01,8.116191562210111066e-01,7.117252640812937736e-01,6.754435757246464167e-01,6.364522231521825280e-01,6.044401189292103460e-01,5.509369128944374694e-01,4.059758926371632715e-01,2.788537088755535520e-01,2.005439788534293943e-01,8.058109791347305151e-02,-4.210087741885776280e-03,2.554015740704551618e-02,5.729154489239672576e-02,-1.233417995224937308e-01,-5.592680388214978926e-01,-1.035563511397801006e+00,-1.474997743769549396e+00,-1.909239219810466182e+00,-2.266914074955322711e+00,-2.572423852431384717e+00,-2.869457437721835369e+00,-3.036635570097026449e+00,-2.642589792976774099e+00,-1.701218518260068313e+00,-6.415417180308216061e-01,8.593119257659767030e-01
1.178417544611970680e+00,2.513349488381244612e-02,-1.102687835007881256e+00,-2.121891737097227004e+00,-3.028329510823108972e+00,-3.350916791163793818e+00,-3.160099267506573550e+00,-2.716761602029808209e+00,-2.159346767624824359e+00,-1.539143814825717271e+00,-1.094769714978852448e+00,-9.991341009268346340e-01,-7.767077257122960710e-01,-2.847066706308732931e-01,6.798433041061197057e-02,1.879156330789452101e-01,1.863619442760976186e-01,1.886029753194859715e-01,1.361694640771166365e-01,1.147036807308954298e-01,1.638709512776228561e-01,1.428886970378498711e-01,1.251235651788056846e-01,1.662825684712106178e-01,1.064387973055372638e-01,9.879483572293937255e-02,1.197019155649612920e-01,7.921544701494726004e-02,1.084372373091997410e-01,5.037069710969810377e-02,4.731265390641498092e-02,1.032330663858300190e-01,2.643892675400694170e-02,-3.464662264057549734e-02,-8.015423986421715830e-02,-2.665911554342870193e-02,1.420738538836063825e-02,-7.518893580875718463e-02,-2.057642373646950684e-02,-1.779752858653186609e-01,-1.967502050805470803e-01,-6.063950253542638169e-02,-1.524156180827858087e-01,-1.952179107105881661e-01,-1.956909512666994422e-01,-1.732545693558950051e-01,-2.915594848839697106e-01,-2.488718661409121957e-01,-2.844416779081795355e-01,-2.881726119268154251e-01,-3.380852066287076685e-01,-3.189108864721154069e-01,-2.537001120978945035e-01,-3.031714453827283329e-01,-2.838795523152219946e-01,-2.125915538732822407e-01,-1.675742525701328089e-01,-1.349149368835654283e-01,-1.538570805874301950e-01,-1.559558068209366821e-01,-6.648060062618207922e-02,5.466256159193327857e-03,1.053883728564666833e-01,1.676186095706601320e-01,1.366610666440212785e-01,2.699839300942832310e-01,2.949659403577303829e-01,3.371553010026842601e-01,4.047080099646616080e-01,3.895440895085600652e-01,4.379409212592625944e-01,3.826476304909880444e-01,4.937661306781812032e-01,6.347424859539910758e-01,5.265623904178767800e-01,4.735799989429921308e-01,5.056494701863759600e-01,5.806650388690252074e-01,5.584516193665995942e-01,6.127736015049084495e-01,6.336936021173820155e-01,5.434408196221629517e-01,5.772935317146909995e-01,6.453571815592765715e-01,6.767758951794030642e-01,6.202827522220862866e-01,6.210148718062051820e-01,6.714128690353082796e-01,6.258138141421842882e-01,6.596220338315581522e-01,6.820701014790899741e-01,7.150228470935422465e-01,7.644654172020103333e-01,7.232576235308575408e-01,7.620650088787204179e-01,8.202679867534041769e-01,8.684987655437055309e-01,8.476368482847261854e-01,8.805791905574852363e-01,8.749277402872853715e-01,9.041087472741524689e-01,9.885156741690890314e-01,9.932724100600733852e-01,1.034697308409614269e+00,1.058600195860344373e+00,1.086195593871506437e+00,1.090199792434176196e+00,1.050995792677825946e+00,1.009340099254408152e+00,9.918426514654378190e-01,1.092198295215130788e+00,1.062726684731442273e+00,1.066903314533219405e+00,1.046382002932588096e+00,9.629800557734691235e-01,9.925579914876039300e-01,8.183443530117791020e-01,6.516783470055687033e-01,6.726489423678846391e-01,6.166912874547645362e-01,5.981513435535315004e-01,4.677582414888605822e-01,2.669466714724873513e-01,1.761393271338621558e-01,6.008112309365852555e-02,1.002254045435914398e-01,9.988050392004076128e-02,-1.756731908371745310e-01,-6.497326310852912234e-01,-1.236099673506541263e+00,-1.791525623768334796e+00,-2.156490468366418778e+00,-2.680977353600162427e+00,-3.220560984224013268e+00,-3.313302877236460553e+00,-2.676273106311534367e+00,-1.658869777058135320e+00,-4.839938254927612094e-01,4.495976292057168866e-01,8.902958524360180537e-01
1.340570908246883741e+00,9.208283023957108959e-02,-1.296087557733770712e+00,-2.455831195121755961e+00,-2.887369587594222686e+00,-2.984498400960468256e+00,-2.732501117050003092e+00,-2.385402405318481023e+00,-1.991138686833934024e+00,-1.372870795497957097e+00,-8.268283350929499509e-01,-6.577338436670001620e-01,-5.927731522467487579e-01,-2.495733300039980895e-01,1.242376201274213998e-01,3.747157548978857222e-01,3.324364950954354914e-01,2.934656996912586857e-01,2.986982221706162566e-01,3.106323404034473934e-01,3.196614153712361572e-01,3.365408502704801963e-01,3.666453186540890585e-01,3.210893355995951826e-01,3.286511574274285641e-01,3.356871172154881622e-01,3.448922525842831877e-01,3.564524649006324264e-01,3.162902539946276237e-01,3.398333084511401814e-01,2.970602599261534804e-01,3.086371799336746213e-01,2.075444264450589937e-01,2.496802405236977496e-01,2.931300451277652486e-01,1.828006383533573587e-01,2.050525720094851234e-01,1.298401412738122707e-01,1.594902586947090639e-01,1.935935475724350763e-01,4.607182133910747712e-02,6.396888209463236219e-02,1.754172297280004456e-02,-7.929927879048420669e-03,5.954585871932688290e-02,4.176652532150534891e-03,-8.482003980747609972e-02,-8.752666831008812376e-02,-1.360951760970471602e-01,-4.932773770651871503e-02,-1.576313147564019079e-01,-2.439759702196248603e-01,-1.376388739543185080e-01,-2.085278970469792437e-01,-1.896642380279123241e-01,-1.698178445017579918e-01,-6.781499799059942379e-02,-1.006275682059333543e-01,-1.767004488556661590e-01,-1.080886340285250047e-01,-3.698685965956963195e-02,4.147310341574117487e-03,5.055248194534006645e-02,1.356348087571264127e-01,2.318377592712677626e-01,2.974718774355801787e-01,3.213856691910115249e-01,3.531439589537177515e-01,4.355705608966489173e-01,4.670058924421753299e-01,4.870036930594296987e-01,5.090432419296977429e-01,5.075886489390983858e-01,5.135306105488053330e-01,5.127463795610017749e-01,5.791028128127756469e-01,5.164393499431634282e-01,5.309669597904836946e-01,6.562753697416904286e-01,5.732118397217759176e-01,5.677865796587191483e-01,5.555266673794971855e-01,4.880682699916695233e-01,5.563943283934500439e-01,5.723604173101053405e-01,5.936517940419072659e-01,5.753960923386663984e-01,5.889398092938012974e-01,6.089867088088887215e-01,6.189114850217084518e-01,5.606026666174590556e-01,6.936470849588552978e-01,7.068052627831806767e-01,6.444121139470253556e-01,7.043807282199435749e-01,6.574641911252495641e-01,7.337121953805596508e-01,7.438888228595517127e-01,7.857522199662616558e-01,7.678670370440768833e-01,7.932186886027245976e-01,8.559859755647860613e-01,8.347120640583924889e-01,9.112342274696315636e-01,8.635517008257576066e-01,8.429895543809988734e-01,8.719844794484550299e-01,8.565655354640238084e-01,9.075414646587073308e-01,9.489195781683346098e-01,9.449886760689907295e-01,8.480163585985881491e-01,9.137872968438054411e-01,9.378643680549691997e-01,8.720687060324023854e-01,7.111320107355065812e-01,5.992320781508954086e-01,4.246429092322624999e-01,3.959499717039815514e-01,4.319556696563264797e-01,4.313818765938274846e-01,3.375537353970428089e-01,1.136549444123344244e-01,1.744353746844323760e-02,-1.570625003718171819e-01,-1.631725810597861870e-01,-3.797452795292338701e-03,-1.285494578912573516e-01,-4.796147446122538960e-01,-9.258970361119522874e-01,-1.596601161186024909e+00,-2.074993745613246787e+00,-2.592021332232856246e+00,-3.210525084647041449e+00,-3.732456483308070894e+00,-3.603150096570075345e+00,-2.916109244605705531e+00,-1.672907756940704038e+00,-7.143366054531922194e-01,3.426708633647064239e-01
5.518974445604989398e-01,-5.823498405586959858e-01,-1.602280034294543798e+00,-2.521423228489493074e+00,-3.007590002455634792e+00,-3.071281898994661752e+00,-2.859365583563966862e+00,-2.535768411860054528e+00,-2.213132116986769038e+00,-1.748843023056237955e+00,-1.191550688703056249e+00,-8.693800395989053076e-01,-7.715271433585590977e-01,-6.543949401921934639e-01,-4.896243691148474686e-01,-1.815898700387266196e-01,2.215126381897086494e-01,3.944675509043059636e-01,4.083416653697312659e-01,4.497855394300775411e-01,4.471574542190004942e-01,4.569438821089626401e-01,5.134804053633801324e-01,5.042506510153260679e-01,4.670177171338862898e-01,4.788209296475227639e-01,4.883571452155278103e-01,4.880575376294076229e-01,5.245328161303267622e-01,5.149364064840358246e-01,4.355957544407839110e-01,4.219648595838615956e-01,4.507448432061487154e-01,4.027728049414637246e-01,3.865276502473333209e-01,4.643214499757062352e-01,4.700885415587351401e-01,3.923281557272931819e-01,3.867768607944504500e-01,4.204612054596758020e-01,3.949727327249902831e-01,3.660365424310493276e-01,3.842770425824547642e-01,3.798010401504223754e-01,3.326649775743862336e-01,2.912911680822923843e-01,2.621866655091218412e-01,2.462085560479877200e-01,2.496058622754425416e-01,2.343603975667297168e-01,1.956510870907390010e-01,1.807982613714010922e-01,1.657060470552841891e-01,1.026931708872332039e-01,7.138887892295306403e-02,9.144874329814117742e-02,9.056438799902545578e-02,9.913932600458488786e-02,6.214269184161269610e-02,3.109806803987716362e-03,4.495691718453315167e-02,2.583066447328807858e-02,-1.553124915727138733e-02,3.099861937256584432e-02,-3.130969837937441769e-02,-3.389365511471187364e-02,9.544647676337578157e-02,7.320149376630644134e-02,3.767773540802904497e-02,8.544762507422121178e-02,7.022955588673890359e-02,8.939835670487056296e-02,1.626696252485440031e-01,1.790603712047424412e-01,1.784686702265486646e-01,2.639026595323307189e-01,3.679773151620872040e-01,3.343481400233635492e-01,2.865030896674648497e-01,3.908958572014499255e-01,4.874163400278283542e-01,5.164801396403049250e-01,5.681670790412545191e-01,6.063567824193506484e-01,6.376719048557922820e-01,6.660650854283205469e-01,6.966308978194488688e-01,7.606535825276843354e-01,7.627672598078107935e-01,7.519123229206745584e-01,7.589062998917542879e-01,6.832488121795986524e-01,6.826152318587221934e-01,7.533847987422150894e-01,7.331836919882661618e-01,7.458037108206105881e-01,7.759128708802727203e-01,7.483238226305527485e-01,7.941625299249590597e-01,8.425578988365227673e-01,7.918305373026942595e-01,7.952753539763960378e-01,8.611846473122466428e-01,7.960108837919630531e-01,6.752803454112348280e-01,7.051553395893137566e-01,8.017703071146943250e-01,8.122014109665869341e-01,7.898597344515739804e-01,7.929504178150007521e-01,7.615164016906785793e-01,6.590160328291065905e-01,5.491191650518004730e-01,4.891526854551183634e-01,4.704458746430242311e-01,4.609585644269612037e-01,4.345251503590415454e-01,3.662703847540620949e-01,2.793180663326726987e-01,2.238564750742915721e-01,1.641385868284958582e-01,2.847594870645277221e-02,-4.499538363373861705e-02,9.891131849924571229e-02,2.002609753487221700e-01,3.445895941717783129e-02,-2.653851053793833126e-01,-7.003557112901243054e-01,-1.264270325413546781e+00,-1.772934581788113917e+00,-2.217181663985062112e+00,-2.653718523808451302e+00,-3.092569251942394626e+00,-3.381109633034022455e+00,-3.207654540325131531e+00,-2.526316399678803837e+00,-1.459917491535718925e+00,-2.603597333582830520e-01,7.094608097796235580e-01,1.441776268598534028e+00
1.262039448426483634e+00,2.529446328070081851e-01,-7.728885249730188534e-01,-1.661868832889269898e+00,-2.407388389942576534e+00,-2.785978599336236705e+00,-2.800158201072594277e+00,-2.678961113515600179e+00,-2.453753235470769845e+00,-2.080577588176598880e+00,-1.623189559353906297e+00,-1.148146713935634056e+00,-7.867203753073165329e-01,-6.304962090979231437e-01,-5.504826403883658070e-01,-4.444540808970097179e-01,-2.150708288093285681e-01,1.869916014007483029e-01,4.443640420649420664e-01,4.033848951523438253e-01,3.667877956290275798e-01,4.361059435633587444e-01,4.695447941193732766e-01,5.070898605060044639e-01,5.609629562535860536e-01,5.362824503587723113e-01,5.289076787706277205e-01,5.619071760527847292e-01,5.313768370752913750e-01,5.192615583384270206e-01,5.546945946565351448e-01,5.606472082048041816e-01,5.498014824395077715e-01,5.099636140045704646e-01,4.709693041463512420e-01,4.782002595810103118e-01,4.981612767264802510e-01,4.899344058278318759e-01,4.451709732817272225e-01,4.555223318258815324e-01,4.973580211626691949e-01,4.178455556176066121e-01,3.845870951696817031e-01,4.556588296695870399e-01,4.232719007480598150e-01,3.870661246269036515e-01,3.955091608293850314e-01,3.758590461457824716e-01,3.863641325057055598e-01,3.439868084081117439e-01,3.185979480692244792e-01,3.581630477459541995e-01,2.790181049850249950e-01,2.226069117717743018e-01,2.528937496622643000e-01,1.883276592176822417e-01,1.180838788421754437e-01,1.057364398131569877e-01,1.092766500836723359e-01,1.293057600779669580e-01,1.003742695109019201e-01,4.772041341429458794e-02,2.378533152758377511e-02,3.350849625449112135e-02,9.648281277614288720e-02,1.334357628008550900e-01,1.060323671984435834e-01,1.036672863533358024e-01,1.070744638893343648e-01,7.739259314824908920e-02,8.628071657601643629e-02,1.383027278729707654e-01,1.533802951431207373e-01,1.526334724233733842e-01,1.880859439724429927e-01,1.994739438783582064e-01,1.918534127028809766e-01,2.863748805120680530e-01,3.561249280331729716e-01,3.082349745469333824e-01,3.815161240564771683e-01,5.210261996362854919e-01,5.063546893823678285e-01,4.705355699707914341e-01,5.044035784537695966e-01,5.773184963922898261e-01,6.253826240383962842e-01,5.789742300997196001e-01,5.734835549915641151e-01,6.304766234596838048e-01,6.578260788399390435e-01,7.073002762638940233e-01,7.232007969864082675e-01,6.815595340506843680e-01,6.963489768377938427e-01,7.200785638846045611e-01,6.945980815972748745e-01,7.084555695089737037e-01,7.318453114676621851e-01,7.095861090601719434e-01,7.538541057553582725e-01,7.867979472057735624e-01,7.442396975360284772e-01,7.965495241542718263e-01,8.203288819874249294e-01,7.463558032004338205e-01,7.836550815965540595e-01,8.285434058270011448e-01,8.010053657711015962e-01,7.888206064963017017e-01,7.147270499857204529e-01,5.889340690215999485e-01,4.996430494313826021e-01,4.222895662338339018e-01,3.775920520327702423e-01,3.825435223921837546e-01,3.360691809717532563e-01,2.223791467241292286e-01,1.726788558499944559e-01,1.578485415004048931e-01,3.615342271497366811e-02,-7.622517617452453931e-02,2.013885939263354574e-04,1.023027445161417276e-01,-8.195545632095513344e-03,-3.184498223375430426e-01,-6.716534835221005251e-01,-1.055984500442141094e+00,-1.665719091681416408e+00,-2.321956362882096503e+00,-2.659032411260322526e+00,-2.953539272164518614e+00,-3.431749462067750667e+00,-3.508565839241172934e+00,-2.909740696214833999e+00,-2.076063382270677327e+00,-1.045157315812506704e+00,1.865335952301377942e-02,6.208948150767117369e-01,1.218081630145672944e+00
9.767185514941909563e-01,-3.519578799919285128e-01,-1.546312269812532003e+00,-2.405172375578914057e+00,-2.881164979142335270e+00,-2.980564097835995074e+00,-2.933870698794896370e+00,-2.817702370028455583e+00,-2.570647891111779160e+00,-2.137302817200037452e+00,-1.549408088878389878e+00,-1.022074904316076172e+00,-6.979848326061357522e-01,-5.656477498035242801e-01,-4.616891091493872668e-01,-1.613927498502206459e-01,2.352339519939824763e-01,4.312413200948543857e-01,4.679011205926932870e-01,4.570489802267304058e-01,4.343239373735289788e-01,4.500944222124348970e-01,4.071327580103783483e-01,4.429774137301925041e-01,5.294263864172550349e-01,4.349715407415725155e-01,4.158584126627375421e-01,4.942532531060446210e-01,4.711969228961926381e-01,4.352120666107746616e-01,4.325734105602527801e-01,4.450164330596577122e-01,4.193432208815596196e-01,4.209346954859878309e-01,4.807111762160651280e-01,4.590847305144551971e-01,3.835011625736520768e-01,3.222801395314082162e-01,3.535638579592471076e-01,3.927642263080851626e-01,3.112964840713145498e-01,3.149566652431393665e-01,3.373698788736727572e-01,2.920298548958497609e-01,3.159775134069043312e-01,2.804634277238386431e-01,2.225834819407213616e-01,2.224384219313046696e-01,1.723711035548776138e-01,1.841557073388869759e-01,2.592852355478981741e-01,1.932867821921285811e-01,1.266778627988809636e-01,1.771717722515517290e-01,1.501496699199559026e-01,7.586409831338211673e-02,4.694690944279904243e-02,-1.552037613213042011e-05,-1.283246501795605454e-02,1.342149981367318778e-02,-5.356437621045928577e-03,-1.982468260763370349e-03,9.233116029335852737e-03,-3.339207987571518599e-02,-4.165198142160023154e-02,-1.437545329977507613e-02,3.829423360432857026e-02,8.614018506877604842e-02,8.285621632925344038e-02,9.429837177306049645e-02,1.342506447169008466e-01,2.149232656033226996e-01,3.270245865436321453e-01,3.277031160160239764e-01,3.019492796325367046e-01,4.202876810341753533e-01,4.037731393486476139e-01,3.187749098021627203e-01,4.360234815111507789e-01,4.963982099554011818e-01,5.420956407432866442e-01,5.698296923465535624e-01,5.054992006000217364e-01,5.761585687591013194e-01,6.390795053518454338e-01,6.722427420118191055e-01,7.226247266077664433e-01,6.724073438108333356e-01,6.444944582701475078e-01,6.531330915509793167e-01,6.478009526303257770e-01,6.802293943982602453e-01,7.167352594732572246e-01,7.208596266268000319e-01,7.046149316422469777e-01,6.418259829853070197e-01,5.995093299993493607e-01,6.208691714565799380e-01,6.502580568146738571e-01,7.116067723115767629e-01,6.996650960167913880e-01,6.467431068266377148e-01,6.893009456286027792e-01,6.740951277005905462e-01,6.358629193657210354e-01,6.982671710899694961e-01,7.674587114113760045e-01,7.894759859727790152e-01,7.836394141973749283e-01,8.188182701010555675e-01,9.014936840359579762e-01,8.578598340318256410e-01,7.349272271547822033e-01,6.851324640716549563e-01,5.305815605532306911e-01,4.072493831102403927e-01,5.022394105188525693e-01,5.231270957764303509e-01,4.934709257034564089e-01,5.101669653744466126e-01,4.077299825231860408e-01,2.363194642800009460e-01,1.160504051651770341e-01,3.435283564904108300e-02,3.059188506518796535e-02,2.062319392410837948e-01,3.078416342538457529e-01,4.707786945981634608e-02,-3.509062174506372700e-01,-7.917310784965314596e-01,-1.334161648773074083e+00,-1.874935837566735763e+00,-2.439140821391758251e+00,-3.012579244373579268e+00,-3.398643905788814035e+00,-3.441059634380585486e+00,-2.794927685626000802e+00,-1.616835656626833595e+00,-6.185985620884861813e-01,6.566329793009708649e-01
-1.512394440670691009e-01,-1.275816693152458381e+00,-2.111186011674103469e+00,-2.994164515585917563e+00,-3.173853486453453776e+00,-3.230201097007243227e+00,-3.167377002611416081e+00,-2.792392479554266949e+00,-2.343046186372014006e+00,-1.850300635960151485e+00,-1.401129223862034534e+00,-1.012908422493606686e+00,-7.316636096583386539e-01,-5.914986050310399035e-01,-3.948546887446873210e-01,-3.999378217950397274e-02,2.855470563211364166e-01,4.818231664954264470e-01,5.376538453555518293e-01,4.235640969297897462e-01,3.393400434701600576e-01,3.812731876747337267e-01,3.890901397813638085e-01,3.498119988484680309e-01,3.529396855353795770e-01,4.200040797672206505e-01,4.841143801026320248e-01,4.532438110205576631e-01,3.965339306243005346e-01,4.503110588505779277e-01,4.777905594199899353e-01,4.354383628569531983e-01,4.704266944218300495e-01,4.720172879973424385e-01,4.228200311458887861e-01,3.642031832928109836e-01,2.919999376367516941e-01,3.610127579604969217e-01,4.097308840931075946e-01,3.073160007437316654e-01,3.050074449213268646e-01,3.577754715990700829e-01,3.067770614906749627e-01,2.715651533440757159e-01,2.934837115458102663e-01,2.827382683530373919e-01,2.596237320352954847e-01,2.406019713632468193e-01,1.984269022578188379e-01,1.294605818621895055e-01,6.789317439840508728e-02,1.282153410064745813e-01,2.028518413482233718e-01,1.237698415975691385e-01,6.586149564219602459e-02,1.202457912174082072e-01,1.233444001865051098e-01,8.425133763575608226e-02,4.505997508852747913e-02,-6.259804434664353878e-02,-9.318005576297772041e-02,-4.501702957974612618e-03,2.300055792679028821e-03,-3.837089045089214778e-02,-1.748685325530038859e-02,-1.053001440233392039e-02,7.903197603729761322e-03,4.581529698233210990e-02,1.648200548138772925e-02,6.830742164854897158e-02,1.533402798805350298e-01,1.271751741871541275e-01,1.947646220692040853e-01,2.548697935275838766e-01,2.247790308117980640e-01,3.005900504760483649e-01,3.594332376246908711e-01,3.811600982063864107e-01,4.166458576921172052e-01,4.111408520070788386e-01,4.438089110437035689e-01,4.619312404098533942e-01,4.283775275876510191e-01,4.856374996689630241e-01,5.870654043030218983e-01,6.117278109372648043e-01,6.404875063276933567e-01,6.402654369469460427e-01,5.972335045145754640e-01,6.705625462278945736e-01,7.420990096788256940e-01,7.058383180602445517e-01,7.142783631880302853e-01,7.312750761080771822e-01,6.783558850703682586e-01,6.859651966514470622e-01,7.416211966152580493e-01,7.253444611269793674e-01,7.051226783145877475e-01,7.321341868643609363e-01,7.378109935186125679e-01,7.178816524970841328e-01,7.127638381904942699e-01,7.288813960850797358e-01,7.399532591535947779e-01,7.156413289872043393e-01,7.543203955238620972e-01,8.515751968188609577e-01,7.885827241899068252e-01,7.467479424538092658e-01,8.693613378254512192e-01,8.364008200595871578e-01,7.733473396790314647e-01,8.164407136171359936e-01,7.494507931158060909e-01,5.917088816812042795e-01,4.586019403927723004e-01,5.334288971774335808e-01,6.455994593665687065e-01,5.547273718178562518e-01,5.074534896590313648e-01,4.340832805894734303e-01,3.061205684602711363e-01,2.758639396037943503e-01,2.793522028171331328e-01,4.766962481000144303e-01,5.523135110454679975e-01,2.591468334534439144e-01,-2.023117926744131406e-02,-4.535441345410131109e-01,-1.130209906590063262e+00,-1.685047748060838124e+00,-2.132402779060927678e+00,-2.607484938768649840e+00,-3.043891920439521392e+00,-3.237727404911354245e+00,-2.695147442767794832e+00,-1.697508219553077291e+00,-8.854205774565527820e-01,6.038545385818407940e-01
1.031575054775917710e+00,-9.536763939761971898e-02,-1.032338859263856712e+00,-2.278393764913711372e+00,-2.721158199616688478e+00,-2.987652499163218511e+00,-3.066325426323524894e+00,-2.920669125284880430e+00,-2.801025049704286118e+00,-2.497018135850413323e+00,-1.870276702619898090e+00,-1.261208417124084935e+00,-8.968330998573267321e-01,-6.974813355977763640e-01,-6.804667674897099117e-01,-5.988519786465684724e-01,-2.041675400396175677e-01,1.743640041468944302e-01,2.928648798834845302e-01,3.795781050824728609e-01,4.421030178111566289e-01,4.254342346737419733e-01,3.729662556435625054e-01,2.735132631766618028e-01,2.733269949657626263e-01,3.064317579195292574e-01,3.063508642480217703e-01,4.034417614569550947e-01,4.143344888743553112e-01,2.942646045322043213e-01,3.060040160822725674e-01,3.399380605497326902e-01,2.712937222882570998e-01,2.357085993611210961e-01,2.386828292838877874e-01,3.071540250313448128e-01,3.392095425884781301e-01,2.669189668458062936e-01,2.725927148762739560e-01,2.941575926420180176e-01,2.215835668658794888e-01,1.863291334610184258e-01,1.928140251783245773e-01,2.114975196497442533e-01,2.393386036464013600e-01,1.956862032440763732e-01,2.320691045857553592e-01,3.169527766985172912e-01,2.673252565976501627e-01,1.962093405384079392e-01,1.482847473648934156e-01,8.958674231915489394e-02,4.679627311151537961e-02,1.302988251817090160e-02,1.544288050728570560e-02,5.433135718216033222e-02,8.326420278922622153e-02,1.307530812365068629e-01,1.080288998035563858e-01,3.744507905362406963e-02,1.063927589566277671e-01,1.697645803791400232e-01,9.098562806007944037e-02,2.904643139203530455e-02,4.478013763597007979e-02,1.164324064734510999e-01,2.020454023300148894e-01,2.271197626086411403e-01,2.967972903744158231e-01,3.062482411969629781e-01,1.890211000035807165e-01,1.964438657222639106e-01,2.491436536036347738e-01,2.851423100781135811e-01,4.010740367431755993e-01,3.989581681741017349e-01,3.544275771753744309e-01,4.571944787275963873e-01,4.382216397024430998e-01,4.300381003394028179e-01,5.530734686717635462e-01,5.579678114835741054e-01,5.827183213216730051e-01,6.314957152956873765e-01,6.069791192336603247e-01,5.721090111319875327e-01,5.569486387001983951e-01,5.920166755125533253e-01,6.395781342492570243e-01,7.335643343556189633e-01,8.913876874931703220e-01,8.886715251153411987e-01,7.048138930460590146e-01,5.955636322255182247e-01,5.546795817578166199e-01,5.369754801158432844e-01,5.627571287175168191e-01,5.565032194074803762e-01,6.132107389697358801e-01,7.205547227428815704e-01,6.548098843678573644e-01,6.073734538507863379e-01,6.668420116086156701e-01,6.460796180451018333e-01,6.827469540268779058e-01,7.314183643429493786e-01,7.359349040547248366e-01,7.536748381344038350e-01,7.693457336466440477e-01,8.463943518272183386e-01,8.504900652577962461e-01,7.992610358213451116e-01,7.991231772377865861e-01,8.159831598472235825e-01,7.940224556315635951e-01,6.791726887632890675e-01,6.494426703812464785e-01,7.062909185814142399e-01,7.321236302321517675e-01,7.034922113359558526e-01,4.756042515944918780e-01,2.093260683690301716e-01,1.385118169269122512e-01,9.278916975962571423e-02,1.189656464127742536e-01,3.833695001010024028e-01,5.207693581180199427e-01,3.074026048851730142e-01,-7.672534021095150925e-02,-5.028860538023174342e-01,-9.846702429800155976e-01,-1.584215937392293050e+00,-2.186273156496668868e+00,-2.996871728055034545e+00,-3.480523478598067211e+00,-3.356349573553655485e+00,-2.741597619517784690e+00,-1.391656027376969806e+00,-7.484713393905226830e-01,8.988904031735565070e-01
-1.095257876687147247e+00,-2.437076802450288238e+00,-3.404634704000160106e+00,-3.513989200298550220e+00,-3.076918008049050357e+00,-2.498367610258624083e+00,-1.699095786308282285e+00,-9.874678908093884599e-01,-7.163814182038090728e-01,-4.848310258648560467e-01,-6.168864952112435018e-02,4.002600875155287175e-01,4.896175991171122233e-01,4.989095987981825298e-01,4.379755732414664093e-01,4.057013109516557914e-01,3.835888343805206047e-01,4.566270256358945234e-01,4.921395556075505162e-01,4.556549829970401588e-01,4.234889601567426998e-01,3.295774309664522006e-01,3.449943433676832538e-01,3.113239473309770133e-01,3.558724505794527149e-01,4.323883241267096889e-01,3.720941546205474570e-01,3.325588382023980660e-01,3.153571394748831969e-01,2.033218381634966376e-01,1.784334571033263650e-01,1.730487115292161371e-01,1.207047381519621432e-01,9.882078904298030597e-02,7.725076042790673947e-02,2.957869089335440904e-02,3.108910574653084291e-02,7.414607401787043361e-02,-5.612516145058088490e-03,-7.226457704376015867e-02,1.151668197256233706e-02,-7.808959120819891631e-02,-1.271532568834832511e-01,-1.143030649066126142e-01,-1.014471225704280943e-01,-1.799990799902887739e-01,-7.229954193649935912e-02,-5.037202567515712548e-02,-3.219793336629844793e-02,2.435896205384750074e-02,6.838813063029389183e-02,6.453341801556435053e-02,1.188833106560244768e-01,2.179384809842281334e-01,2.540359759739332368e-01,1.834120299561572132e-01,2.957195826935099525e-01,3.016093957535436187e-01,3.843509535231522944e-01,3.883385104030073198e-01,4.480160721097385390e-01,4.376785766250171905e-01,4.130966515841938413e-01,4.878191411489153362e-01,4.150989176195184482e-01,3.219550982661899541e-01,4.038659351320267321e-01,4.455376069318846000e-01,3.784113188377267178e-01,4.967859948058994113e-01,4.990940870249935823e-01,4.651701907170733841e-01,4.871685102024845837e-01,4.120144989274718283e-01,4.535339403128842428e-01,4.352215828230971417e-01,4.494990527622915177e-01,4.418881412969005718e-01,5.075642697662847702e-01,4.812829110511251951e-01,4.966656300356457332e-01,4.888632002506181906e-01,4.537224087741325018e-01,4.984102294942635014e-01,5.065768193458376478e-01,5.788242177709944647e-01,6.836456989850392407e-01,6.511192436114753290e-01,6.352154443517805671e-01,6.289333513459849367e-01,6.728777303251476383e-01,8.054748273334155773e-01,7.578171880297621676e-01,7.174374950000934614e-01,6.536479632621389202e-01,6.478288861134957610e-01,6.259039588981248903e-01,6.632597898600213204e-01,5.864541521971695648e-01,5.594595760959688580e-01,4.875005333768308580e-01,5.171312966246714993e-01,4.472960910289900394e-01,5.004115225563297020e-01,4.648495186671884882e-01,3.432906178207526526e-01,4.700097336703703554e-01,3.803756024208398978e-01,3.758561361948385970e-01,3.812609199932723847e-01,3.888129192358653619e-01,3.760079015508890343e-01,3.464508397615718160e-01,2.455401894132833163e-01,2.616926429742960081e-01,2.615953404070312516e-01,1.877718153652894739e-01,1.448503822747592706e-01,1.750867723268002274e-01,1.470454934621886478e-01,9.438321869698411415e-02,1.161408674835718441e-01,1.213355340340364075e-01,2.805247365909104840e-01,3.031993895456217558e-01,2.625845445301334125e-01,1.744847796142735552e-01,1.710103868847199782e-01,2.608206323290909179e-01,5.554366192168773697e-01,6.806510339226217177e-01,1.500848580603706406e-01,-4.266047283264118861e-01,-1.280851364957612981e+00,-2.005382672183820603e+00,-2.746235653933242649e+00,-3.954784300048386658e+00,-4.391903570297170489e+00,-3.680590865910808418e+00,-2.508141647536000551e+00
6.977399646722853843e-02,-1.112393408063976352e+00,-1.723178684942876293e+00,-2.538926117232478852e+00,-3.025476798905990083e+00,-3.263460207109647460e+00,-3.182243918231938640e+00,-2.729779293049487521e+00,-2.189749008372841477e+00,-1.667316991996719899e+00,-1.153299096405059565e+00,-8.548932629410490591e-01,-7.730863350284662427e-01,-6.102849237405819638e-01,-2.273787905351080663e-01,1.714902891778380956e-01,2.972269355039591776e-01,1.907827220704359228e-01,1.342041157345295332e-01,2.006643556172268972e-01,2.663874798720173853e-01,2.625353638617079488e-01,2.490999626753797047e-01,2.701411288265002097e-01,2.542926181561299126e-01,2.075438950748107192e-01,2.168711622505869463e-01,2.261847211875376296e-01,2.283113911902250326e-01,2.231078180041476400e-01,1.672870792026135423e-01,1.408327843912917099e-01,1.393705591964863322e-01,1.817136787920068386e-01,1.664487237109364970e-01,9.182576939240272296e-02,1.474350976253384626e-01,1.452835465805709658e-01,9.647015797523056380e-02,1.311063583766517437e-01,1.014680433485420918e-01,5.964728487457937600e-03,3.813191373623536773e-02,1.615564902919204571e-01,1.067246778205186430e-01,4.293276973222510950e-02,1.486506791653231796e-02,-1.022877306072601383e-01,-4.830585054696123759e-02,-1.174281561003751723e-02,-1.671426482700118232e-01,-1.670307948737860537e-01,-8.174211342897208521e-02,-1.417789679513858647e-01,-1.760903645004928686e-01,-1.651616331993310538e-01,-1.703803730606070488e-01,-1.399005787854159799e-01,-1.542729362154906525e-01,-2.312776854892623635e-01,-1.995392004447298362e-01,-6.825284331206676880e-02,-1.417021612256986196e-01,-1.732802365509100162e-01,-1.430895808534032865e-02,-8.933326055375417907e-03,-2.606803275026092770e-02,5.172799877467493257e-03,9.864882485693771130e-02,1.557515888284601580e-01,9.182578998921542279e-02,1.592702013652793624e-01,2.229933880606923269e-01,2.457521769140547929e-01,3.173386131181937242e-01,3.374732846982161361e-01,3.972104385998556086e-01,4.709513598949359170e-01,4.194810227422030025e-01,4.293944612366229485e-01,5.570148118061807319e-01,6.268713754136353566e-01,6.436163070226119665e-01,6.142396887864910449e-01,5.917840814557087104e-01,6.732998486450783027e-01,7.063580605640146226e-01,6.638414561632874911e-01,7.026527974623353323e-01,7.513088014789203184e-01,7.559294097846056548e-01,7.451077404418907646e-01,7.000928463065450025e-01,7.376381846283188715e-01,7.829124174079145071e-01,6.995971159135331296e-01,7.285721429503957403e-01,7.875591068324779842e-01,7.436375691445972214e-01,7.313783459149608701e-01,7.280803258870244266e-01,7.883072538604051216e-01,8.480054602250324258e-01,8.390503559813831114e-01,8.761690799440620125e-01,9.077415348471860046e-01,9.205629571291815694e-01,9.827701048716555032e-01,9.896569060098018289e-01,9.836203717072761199e-01,1.050387196990445693e+00,1.021004499992490100e+00,9.950787279411303921e-01,1.135100686895294197e+00,1.148221720024306336e+00,9.755302603848792220e-01,7.973328741105814021e-01,6.891542580847744848e-01,7.332193635377466379e-01,7.996800484351781479e-01,8.364966873807381242e-01,7.544186712171152553e-01,5.872418111978894295e-01,5.384396211538587940e-01,4.445014663314708070e-01,3.845524480802858247e-01,5.952629872998302929e-01,7.399569669783692127e-01,5.560366344613713041e-01,1.579050996535384943e-01,-3.590424423957212507e-01,-8.901322189597175027e-01,-1.402732213599747313e+00,-2.062001475443514753e+00,-2.683453428409324548e+00,-3.272050797092235452e+00,-3.460586542007346278e+00,-2.561815254293092536e+00,-1.959076477132733807e+00,-3.546411509020321873e-01
5.285560660597626859e-02,-1.157903467335351211e+00,-1.875078917488090191e+00,-2.463015019381044279e+00,-2.577460396227565287e+00,-2.638016506019878804e+00,-2.630018493200049434e+00,-2.413920513486939257e+00,-2.229650027931821654e+00,-1.886079903322173346e+00,-1.317070785366417862e+00,-8.720607999276419608e-01,-6.645033054266060724e-01,-5.335030507263049948e-01,-3.801587478362447037e-01,-8.742307919505272473e-02,2.919752173657278460e-01,4.942433594301223199e-01,5.113814467169589539e-01,4.760497554872120118e-01,4.224041213719474386e-01,4.135997072659312046e-01,4.596125847753030347e-01,4.985805581615077031e-01,4.876185890101839560e-01,4.780119187422759985e-01,5.407633737873733804e-01,6.106777464154199420e-01,5.310949081277872574e-01,4.361321899195494400e-01,5.072139642615595134e-01,5.126480133986628385e-01,4.224041646765460678e-01,4.685383689703320753e-01,4.798766815319853163e-01,4.053655688501706100e-01,4.441422858924863881e-01,5.092079744157232968e-01,4.934618140523235330e-01,4.553046270286544850e-01,4.224041229788151885e-01,4.030672705285398560e-01,4.169476123350582819e-01,4.559503354792057150e-01,4.224041332748758593e-01,3.601768733735364880e-01,3.752421500480355165e-01,3.260570147992892798e-01,2.050226572058244934e-01,2.233170814303843121e-01,2.773697183409401523e-01,2.301082037070217023e-01,2.267607935801742580e-01,2.620086056980052147e-01,1.923172363200732482e-01,1.364422714911490142e-01,1.832844971238529463e-01,1.969077571915692215e-01,1.635544214877699964e-01,1.678676595049776454e-01,1.615463496009598987e-01,1.283784508267290791e-01,1.084556795446451755e-01,9.449265333631307051e-02,1.180700496297926172e-01,1.903441189499179287e-01,2.145698208236602456e-01,2.054909970875985481e-01,2.050226442729502219e-01,1.608777633032844878e-01,1.274659467222629128e-01,1.953907050755623598e-01,2.919752363304946030e-01,3.469953474295181528e-01,3.766640058854050510e-01,3.764387695954457547e-01,3.571896912000557256e-01,3.569116412490325185e-01,3.694528512658960540e-01,4.271898871415604759e-01,4.876185792828177656e-01,4.897898301604615146e-01,4.995338199537575630e-01,5.126595012535375417e-01,5.310948784904794273e-01,6.148712647114888963e-01,6.665665644250859945e-01,6.599494466859083808e-01,6.615237860336209419e-01,6.616902285283041696e-01,6.787092301065025257e-01,7.175148834146320986e-01,7.050000791429309466e-01,6.524539823159780649e-01,6.403924022087330581e-01,6.792477237315650562e-01,7.267382150393999485e-01,7.241617986531263540e-01,6.736399263776953195e-01,7.091883463224410988e-01,7.702145124983867941e-01,7.381394542290236060e-01,7.362436176979818558e-01,7.433622080216849559e-01,6.832619024115287321e-01,6.882996835243244682e-01,7.384544345165351409e-01,7.513094747461224188e-01,7.484763702291118426e-01,7.240533267973122689e-01,6.539179719328808149e-01,5.336505397916647686e-01,4.441422914273925882e-01,4.151833668519134268e-01,3.832717865839928018e-01,4.247470861456839053e-01,4.224041477550786183e-01,3.076013739488734355e-01,3.331509660311099408e-01,3.339848282029658777e-01,1.398081963799810978e-01,3.547922288987184758e-02,6.510448646270070028e-02,1.915731048677388748e-01,2.484989421660548370e-01,2.762346403658230698e-02,-2.833501813363002997e-01,-6.964846944105769211e-01,-1.294909587370638437e+00,-1.844780874442660590e+00,-2.342885788229538413e+00,-2.819499841602769230e+00,-3.316557413216246530e+00,-3.657389915324019025e+00,-3.391702537258629579e+00,-2.666901976874841207e+00,-1.534029284054696962e+00,-3.818205937173014819e-01,1.105163982621926583e-01,1.008060843924622585e+00
-3.800480704888429817e-01,-1.482374286857605750e+00,-2.036098110915196990e+00,-2.814452132461513933e+00,-3.131553612848621437e+00,-3.174925500755500618e+00,-3.054878929742074867e+00,-2.673141492028082489e+00,-2.284219170698347234e+00,-1.899826064905947520e+00,-1.399681874622369149e+00,-1.009285276314690671e+00,-8.608416033432518821e-01,-7.537828651482768594e-01,-5.317148031831520072e-01,-1.873085698142621103e-01,9.048204088572786574e-02,1.869217500771529206e-01,1.563106824105871262e-01,1.760277635531445894e-01,2.539060174935819925e-01,2.140617282951789713e-01,2.316524294884645951e-01,2.668907772658437594e-01,1.867571215607229107e-01,2.605992673388864977e-01,3.383871923907054158e-01,3.064812027355993118e-01,2.699522910214177118e-01,1.905152120294718032e-01,2.212313544818591549e-01,2.494046816671011135e-01,2.602810058489678502e-01,3.352633016709367642e-01,2.493648298794545748e-01,1.894879594202474316e-01,2.455690151581124692e-01,2.229875229033816408e-01,2.039025208341567752e-01,2.201164194053968348e-01,2.402059972639223884e-01,2.479377712561927627e-01,2.266189225491660464e-01,2.269982320955139243e-01,2.151434078024453411e-01,1.511104614973763915e-01,9.238215365223180486e-02,1.326190324613037708e-01,1.936181652629449246e-01,1.433854336169226029e-01,1.236630891586139036e-01,1.137202526487315901e-01,5.299597230742498361e-02,1.236055714884704004e-01,1.639739480511854253e-01,7.085350928179844077e-02,9.952133316758329795e-03,-1.345995497468520374e-02,2.496916149783319494e-02,6.526369446622454218e-02,5.151996783982458472e-02,5.280716875388716258e-02,6.715802006637960897e-02,9.567051271363830045e-02,8.529349468521510436e-02,2.850943649375478617e-02,4.371797968036325588e-02,8.450000042363065011e-02,6.015799441700364625e-02,9.520230878010871312e-02,1.399521898914157236e-01,1.437323650252175788e-01,2.357190036402264655e-01,2.223729350080080880e-01,2.249891440870395720e-01,4.088395186020330474e-01,4.654088610382828284e-01,4.912512105117173844e-01,4.978835303481346508e-01,4.693903102490394885e-01,5.960726674178594697e-01,6.278255200427850236e-01,5.800768371280602409e-01,6.372096039203992701e-01,6.599524624868048361e-01,6.534823347024698581e-01,7.058302496115271829e-01,7.708714659779021261e-01,7.314929724282430712e-01,6.425476833293150003e-01,6.572673907000586846e-01,7.235447480861862957e-01,7.587158409441498996e-01,7.931401883185187351e-01,7.952071983375461617e-01,7.869420280533225842e-01,8.581650200384207672e-01,8.623514758007628789e-01,7.682858493757103169e-01,7.894317832634141219e-01,8.549175639479734690e-01,8.530423997582881057e-01,8.860158638934971798e-01,8.833484055554592373e-01,8.005979026651374175e-01,8.282193708670249066e-01,9.327214684167591807e-01,9.642182640861468590e-01,9.666142562770519975e-01,9.186813198965694260e-01,8.517146458375599583e-01,9.338681945364805115e-01,9.849526400257084813e-01,8.633739484345529513e-01,7.973905486803547493e-01,7.267925389856582097e-01,6.598660797252813293e-01,7.209447930012016226e-01,7.108805680283477590e-01,6.404826813468540436e-01,5.660449259063188299e-01,4.813743920909334673e-01,4.212448731659892975e-01,2.798431654563192095e-01,2.474061750991449204e-01,4.637435917708162547e-01,4.649523534029108007e-01,1.120632778058243406e-01,-2.340901845387789726e-01,-6.694679625669788248e-01,-1.238153969424570233e+00,-1.724544863225895508e+00,-2.212173579578690319e+00,-2.682692238081613834e+00,-3.021452280646053534e+00,-3.119370252485606176e+00,-2.553695028973713921e+00,-1.482050134636984762e+00,-4.973906888643189195e-01,7.992971449679708851e-01
-1.052654393800171562e+00,-1.862013702035609564e+00,-2.201412899989585448e+00,-3.053503405093174194e+00,-3.058723900207078739e+00,-2.871770501690044775e+00,-2.758301205216982854e+00,-2.251874493764550067e+00,-1.831696817132666411e+00,-1.495084500718474096e+00,-1.054302533132923880e+00,-8.009411605425937886e-01,-7.796569440922895833e-01,-6.497810787447000358e-01,-2.766042218693814947e-01,1.289299393708469577e-01,3.977586301611027997e-01,4.507451340257510042e-01,4.007580620333449639e-01,3.907620879584310924e-01,4.093121450894540714e-01,4.172433700750117769e-01,3.814856911382325522e-01,3.669115461444195647e-01,3.931711896267370276e-01,3.213948262217182217e-01,2.940695807471621070e-01,4.167492840917316199e-01,4.461297074622125880e-01,3.986223319237098273e-01,4.149237122185369664e-01,3.890170665396411320e-01,3.302544566959318972e-01,3.370667392738428969e-01,3.478231066393666082e-01,3.435918663011596763e-01,3.688879174956919416e-01,3.607095674502852622e-01,3.074243309648675981e-01,2.892422877996526642e-01,2.740607192381377399e-01,2.635387822888286546e-01,2.654567182863430963e-01,2.294951792700417881e-01,2.322581303741574899e-01,2.631797682241497904e-01,2.151445640764984013e-01,1.480826649026689146e-01,1.400613148597414370e-01,2.030965064605636528e-01,2.526928754446373659e-01,1.726574532052297106e-01,1.041324987494264276e-01,1.534578886234902739e-01,1.463312625454210314e-01,5.687183438851411282e-02,6.121917218052182197e-02,1.111579097396657445e-01,6.267307369128038985e-02,3.697307746067884926e-03,3.653688981260315438e-02,7.002267758389978114e-02,3.557175219542454969e-02,-1.587262177846857081e-02,-1.408620039362420973e-02,3.527492153975542166e-02,7.873347714524087104e-02,8.802852398546953672e-02,2.125788933709787942e-02,-3.278601636652228590e-02,6.880873234927648019e-02,1.734590062881241068e-01,1.349362855961991903e-01,1.250855267419689332e-01,2.197147525717293992e-01,2.965238851577924883e-01,3.064235268370033571e-01,3.008144923445781327e-01,3.206754595705206268e-01,3.547776875160618681e-01,4.012710305711443270e-01,4.689456111015106177e-01,5.181323313554425658e-01,5.447546918914845104e-01,5.774253730533314144e-01,6.083028984309655218e-01,6.433100678435462738e-01,6.712765659352075698e-01,6.869027080694781739e-01,7.103338491934381160e-01,7.096936308907690893e-01,6.725277655495444096e-01,7.110372108460917273e-01,8.166753589873352315e-01,8.114346999897679158e-01,7.914208782490681493e-01,8.876615948813353363e-01,8.929126879144124729e-01,8.700859115057288928e-01,9.304881010482211057e-01,8.696983267551893215e-01,8.235119557031937987e-01,8.653516122363933416e-01,8.007057796609678979e-01,7.881124415429285879e-01,8.692366647219615938e-01,8.865244913400438520e-01,9.134177462996577734e-01,9.510833137633754042e-01,9.487072196612788000e-01,9.139454119215183470e-01,8.575640160074867735e-01,8.475698602294017281e-01,8.348426782669166046e-01,7.188721077722319830e-01,6.045103303516859983e-01,5.918230867450504640e-01,6.072839625712903588e-01,5.924170753580410009e-01,5.826209025698660948e-01,5.859674855215301070e-01,5.169299241702526304e-01,3.758997665229424912e-01,2.514549639979251627e-01,1.918497702531912208e-01,2.762840703423061761e-01,3.737793532045694533e-01,1.502062319065195495e-01,-2.279769769460171236e-01,-5.518972026377759743e-01,-1.005126708358537790e+00,-1.488597125796293330e+00,-1.998418811441284193e+00,-2.471165410934220041e+00,-2.795102476032689687e+00,-3.256827641535963380e+00,-3.189138532850507524e+00,-2.547242437493508316e+00,-1.973534885756785151e+00,-7.756443774383997569e-02
-1.161047904068363446e+00,-2.239799195576090973e+00,-2.891851600473597461e+00,-3.032928014949233031e+00,-2.900298717267633997e+00,-2.849019595685624129e+00,-2.450502604345856650e+00,-1.774268101430123812e+00,-1.058635101256453215e+00,-8.343918306649229510e-01,-7.618401025622578704e-01,-4.590493679199066923e-01,-8.342526099162295150e-02,2.023383974348302028e-01,2.304809614163603193e-01,2.275742475265749021e-01,2.335961608251082844e-01,2.123677694069784072e-01,2.193152607179522928e-01,2.168353896271904002e-01,2.202782756690461197e-01,2.506296440088592314e-01,1.638121360120239345e-01,1.283516824376823295e-01,2.669450332511241752e-01,1.368350783851185748e-01,1.028963463690049651e-01,1.379855401831982520e-01,8.637173932521163833e-02,1.538613560303332406e-01,9.414489115327545621e-02,5.467007419409097846e-02,-1.042881743070156464e-02,1.952777098110380916e-02,8.294821161203319582e-02,5.933610661760291283e-02,-2.901367191192610884e-02,3.472429679417071702e-02,-3.615821567157168070e-02,-1.417738435475717207e-01,-7.823948342918873866e-02,-1.206695403362006702e-01,-1.581044349001254901e-01,-6.853439115387691127e-02,-1.430787499687793118e-01,-1.728143885463828133e-01,-2.264388097603290406e-01,-1.862347888353726721e-01,-2.428363056828864996e-01,-2.430579594951506883e-01,-1.877653152776481704e-01,-1.395043558770358572e-01,-8.671964421543515433e-02,-1.389801235096758403e-01,-1.249272918280749239e-01,-6.476518565793951132e-02,-5.857864184496447413e-02,-1.214830653895035417e-02,7.499551149731883970e-02,6.427162214290900455e-02,1.599246007108868217e-01,1.931582089692794324e-01,2.340279229124689331e-01,2.886972499853691088e-01,3.714076788259216277e-01,4.034359693801059521e-01,3.576533774639941710e-01,4.856458287953068220e-01,4.352678584532463368e-01,4.820305147661414491e-01,4.365457013403462594e-01,4.150875299432019716e-01,4.107496608240970293e-01,5.013295903828459688e-01,4.612696701739517624e-01,5.171591399491468621e-01,4.945494400638050236e-01,4.883358500983371320e-01,5.446394898301989418e-01,5.772476109743052142e-01,5.833810318594143673e-01,4.827202003132694541e-01,6.322995904113105636e-01,6.702161058689853901e-01,6.257504624716150321e-01,6.305019747696090082e-01,6.338214361164311583e-01,7.169526516409364669e-01,6.829881216497337704e-01,7.494186426626638919e-01,7.475671766780089822e-01,7.520433680674777355e-01,8.261340289309864193e-01,7.804644554233839404e-01,8.418748793784582851e-01,8.470395969801687297e-01,8.125680808659694332e-01,8.516281161105325737e-01,9.454181556479683834e-01,9.621168794845638139e-01,9.563434161957271584e-01,1.012570598899936503e+00,9.426799728082014829e-01,9.476177757860202444e-01,9.243148954055877553e-01,9.468881151608328217e-01,9.259972120530116646e-01,9.428417865117426633e-01,9.745197922042642125e-01,8.870036097098159544e-01,9.125400605292572909e-01,9.698203729532350881e-01,9.526413231760109124e-01,9.302194694339176451e-01,9.231757906649380452e-01,9.201358768784877462e-01,8.317870770093032107e-01,7.211459262825272720e-01,5.720026947248811888e-01,3.558928663917965696e-01,3.770641327637078155e-01,4.651576234748742156e-01,3.204636868432245156e-01,1.827436971649674669e-01,7.719536848079501523e-02,-3.188871853917822630e-02,-1.588400093531210366e-01,-2.220801695163788364e-02,8.649086759125992896e-02,-2.366512150817153270e-01,-5.900913525315332198e-01,-1.213010787403625557e+00,-1.736826658841989390e+00,-2.138518321073879402e+00,-2.958222139362542968e+00,-3.539187360071780475e+00,-3.681693094248935427e+00,-2.849993413245911711e+00,-1.404467789725989624e+00,-3.798678088930462771e-02
8.255668509818812062e-01,-4.435515332027157864e-01,-1.742033916440709040e+00,-2.507874194045869309e+00,-2.889600124183369090e+00,-3.061360599721938858e+00,-2.935464705008821618e+00,-2.804358306300201775e+00,-2.515187723000738451e+00,-1.961366623061524539e+00,-1.290810704013415577e+00,-7.751106490978945107e-01,-6.957883604810348732e-01,-6.791820160933140782e-01,-3.407061075165979114e-01,7.003382519663414740e-02,2.484578097062218049e-01,2.993908808376380959e-01,2.858083869871453908e-01,2.420228289725364634e-01,2.537639613191261523e-01,2.020191593119949613e-01,2.353806521139980013e-01,3.220947418483915969e-01,2.589426328486992279e-01,1.998036542255342274e-01,1.709151899442139522e-01,2.004780863117482381e-01,2.123000215942475455e-01,1.604325641540051972e-01,1.750164521418704489e-01,2.145087744009799846e-01,2.546245063988730184e-01,2.598890362270114274e-01,1.707258810284882355e-01,1.629764276436705961e-01,2.201694338112404337e-01,1.966290747317340770e-01,2.117890826968462092e-01,2.033473547043395113e-01,1.539544046770375263e-01,1.864120660538308716e-01,1.623062279315270473e-01,8.158851104321143688e-02,4.766387544108380281e-02,-2.293921469077753184e-02,-1.101205277410086808e-02,7.915016506977341770e-02,7.310650803213999960e-02,3.401197590619579186e-02,-5.220600822893879667e-02,-1.627260125963511106e-01,-1.688435455801222118e-01,-1.548274921578114693e-01,-1.527565227875415377e-01,-1.326427875236591836e-01,-1.523377287654415491e-01,-1.422718467672066944e-01,-1.284959044378439219e-01,-1.272753318673805478e-01,-1.070362015385350196e-01,-1.097420012850470195e-01,-5.699741579749820208e-02,6.249191018677602294e-03,4.770670242146279882e-04,3.462485127215544911e-02,1.447898010257042123e-01,1.713384001527090417e-01,1.438657499560726249e-01,1.761763959490784404e-01,1.515145351492175885e-01,2.272276857953466067e-01,3.818007499632887214e-01,4.285235408878222962e-01,4.738572094101759502e-01,4.423808208697440070e-01,4.581636205416750873e-01,5.558725611575318082e-01,5.366010098229258007e-01,5.710236603914790043e-01,6.249443760412675131e-01,5.467738211250883218e-01,6.011603770737841135e-01,6.334008466447250685e-01,6.256844865279960199e-01,6.605427852547038903e-01,5.923815163016218355e-01,6.526097435104294409e-01,6.184065806235494733e-01,6.307950715386092533e-01,7.447974616035313300e-01,6.819983828358360256e-01,7.027180580112523112e-01,6.990338530078672452e-01,7.048156334128108380e-01,7.866218436128502578e-01,7.328862126120121445e-01,7.395131077588292801e-01,8.262791889931505596e-01,7.553551831623926960e-01,7.427168447496348413e-01,8.058699732898415569e-01,8.356156267461063436e-01,8.471926980457218370e-01,8.237899155571655196e-01,8.688822353506919782e-01,8.520286802577023977e-01,8.795171116734536998e-01,9.208666009788977203e-01,9.251677697285474178e-01,9.897259500857582548e-01,9.166037623779329513e-01,9.204331388701518790e-01,9.868887336747066419e-01,9.143223846837811308e-01,8.682471931924146125e-01,7.669297564236597919e-01,6.403221533981249269e-01,6.995356979036474465e-01,7.367193949143796550e-01,6.953756315336062643e-01,5.919174938466130742e-01,4.117968527375601151e-01,3.381012520343341654e-01,1.889196150147272601e-01,1.410412473257752208e-01,3.954494949219339861e-01,5.442861012463063863e-01,2.798870081223026607e-01,-1.835363208127337442e-01,-5.626805412505347936e-01,-1.188208477529713036e+00,-1.895289769281695014e+00,-2.489705819263299258e+00,-3.138886200137677385e+00,-3.506735116729770674e+00,-3.300480584776180670e+00,-2.372603971488365993e+00,-1.296400878429474268e+00,1.903966148825311233e-01
1.202442163785317097e+00,1.919891159637177047e-02,-1.164843413762534530e+00,-2.021292944927197244e+00,-2.470289179962506410e+00,-2.710159198142215065e+00,-2.748832091562222413e+00,-2.679252520232331403e+00,-2.573702751096078600e+00,-2.273084184081360259e+00,-1.765186265864072901e+00,-1.193235577765102029e+00,-7.246958789183459704e-01,-5.488358996454820726e-01,-5.117011546911585107e-01,-3.965888207154951717e-01,-8.985575659314165575e-02,3.163713002607526636e-01,4.631917572267367778e-01,4.537467013625476331e-01,4.250863999987288255e-01,4.211121194499231057e-01,4.821861475095336469e-01,4.054041296047480314e-01,3.570551098899045206e-01,4.192652431555380366e-01,4.057407218144675753e-01,3.687559254855681257e-01,3.988769756396715049e-01,4.502963424838724582e-01,3.947599719252322670e-01,3.483171971042364201e-01,4.188213900706811987e-01,4.074210592060160119e-01,3.020417922586525195e-01,2.807234600212776821e-01,3.168438559983079994e-01,3.526649945781206164e-01,3.697359339561381852e-01,3.499151923005030529e-01,3.444590654144807362e-01,2.966959145329928216e-01,2.885212785824504689e-01,3.232494755654522489e-01,2.657010385037129052e-01,2.703062993949512660e-01,2.513813551565285409e-01,1.306913743090715729e-01,1.276412584372907666e-01,1.873701475678362094e-01,1.507619317285803784e-01,8.834894138844365252e-02,1.251538371317404419e-01,1.360226670671680904e-01,5.551042766234083603e-02,2.963857797727591920e-02,4.363388718955917706e-02,6.098607487519643738e-02,9.579068570498491808e-03,-3.663852719857260687e-02,-2.907941248809622903e-02,-7.518504531369665789e-02,2.089367024492327918e-02,5.761942962485322450e-02,-6.735882588313465980e-02,5.634336397722000678e-02,1.997171693651866031e-01,1.182179717688000009e-01,8.120924696692988221e-02,1.641390736999424615e-01,1.881913741681782437e-01,1.958766081906715972e-01,2.720622899436899722e-01,2.665362861509109615e-01,3.075387345933794370e-01,3.685044397101903679e-01,3.411999854575186175e-01,4.455450133336859575e-01,4.867804794527785250e-01,4.615070089378159879e-01,5.106587498287569193e-01,5.037431399269829413e-01,5.657337076353842198e-01,6.485074645032832263e-01,6.724631622747578863e-01,6.861086517714946043e-01,6.603053889559106215e-01,6.223050998811234802e-01,6.212589107323011062e-01,6.673848245197988582e-01,6.443503264996918167e-01,6.204905669347096087e-01,6.809341007594733597e-01,6.600801179603978941e-01,6.307260201573718916e-01,6.999644724657552164e-01,7.611424307040861592e-01,7.744786384690366399e-01,7.280370612464184266e-01,6.598143444359272358e-01,6.930662072351203573e-01,7.368754367551813012e-01,7.538142994267742480e-01,7.426895545287399703e-01,6.602684991928422509e-01,7.063013141999348043e-01,6.665796573230853284e-01,6.015350852036877027e-01,7.248656243479008054e-01,6.721393808485637278e-01,6.369513831673510040e-01,7.204456461081040208e-01,7.315096656623918392e-01,7.517679615036304552e-01,6.872320895880241753e-01,5.995609394472034559e-01,5.900938933490582627e-01,4.784313721091258964e-01,4.197286786344506249e-01,5.391726166824919453e-01,5.497577857440042459e-01,4.908364136581738757e-01,3.830031860836856095e-01,2.635046847757281374e-01,1.710813450734633978e-01,6.122650420474348709e-02,2.749296219498306160e-01,5.195041095578291079e-01,3.220928492166524881e-01,-5.688218253844251615e-02,-4.849728147274815493e-01,-1.063782856425768752e+00,-1.629136025567907931e+00,-2.223086533411642307e+00,-2.798461440896249375e+00,-3.489137866595771076e+00,-3.819549319902422191e+00,-3.163151472146714216e+00,-2.791963841866543561e+00,-9.150207578884004267e-01
1.745392626279814174e-01,-1.329742498370014347e+00,-2.508615089238209084e+00,-3.314471494568996146e+00,-3.304402006246407009e+00,-3.164743204297456369e+00,-2.816815692316055220e+00,-2.320399113868226948e+00,-1.608293099424122463e+00,-1.137934313126722774e+00,-1.015012299715427613e+00,-8.613047324016316342e-01,-3.055436700888049528e-01,3.808258634936853571e-02,9.615344557769867073e-02,8.429147645917542397e-02,8.116779287808859045e-02,1.063068242759438176e-01,8.875926107371515106e-02,1.082728217087877698e-01,7.461222853179041992e-02,1.021519680235899730e-01,1.439537561538092869e-01,1.036030060871918346e-01,6.239641335046811066e-02,8.140647008166709830e-02,2.817107968255894157e-02,8.058251999519322473e-02,6.188144093168979065e-02,-6.759105573797402622e-02,-1.564985148121816882e-02,7.761489295379897513e-03,-5.589581055438619384e-02,-3.079465582896645515e-02,-7.997568194042853351e-02,-1.008396722196185369e-01,-7.700525937143748445e-02,-1.002495379495219052e-01,-1.551477365721904977e-01,-2.859516553606263889e-01,-1.787731925723993198e-01,-2.051191558281266480e-01,-2.111648613400224361e-01,-2.583541510418644327e-01,-2.272671315391578128e-01,-3.441203694586767448e-01,-3.480255751450878066e-01,-3.450490670743163735e-01,-3.049754536534398097e-01,-3.174987710430576815e-01,-3.400489211870786344e-01,-2.787484069324585034e-01,-2.241825088851437942e-01,-2.435989123062779205e-01,-2.161562878923403708e-01,-1.278390003518347362e-01,-1.448745280763702459e-01,-1.092271960901304573e-01,-4.403090820058094823e-02,-1.723870072717356705e-02,-3.298727705201592864e-03,1.332451203005728668e-01,1.552007497454354346e-01,1.487693114388575766e-01,2.289600992999056284e-01,3.346301031508258084e-01,3.520421532204887072e-01,4.704154024062144890e-01,3.575595392948668905e-01,4.513710315044913712e-01,3.810734697358467149e-01,4.262117700044678048e-01,3.616462404446271206e-01,4.569138605599455394e-01,5.271858996989776669e-01,5.057988499804813021e-01,5.917269928393249501e-01,5.240577096918940248e-01,5.871072179188909779e-01,6.233132978948510150e-01,5.928555610497916462e-01,5.584208100962420041e-01,5.460240575572682387e-01,6.014963653612683814e-01,6.132491297196023261e-01,6.266013554513539807e-01,6.978198605620419270e-01,6.835135801381538867e-01,7.183355310677130845e-01,7.903846763265338637e-01,7.684286729196416754e-01,8.623215523777221225e-01,8.356091969570220712e-01,8.816598275650884275e-01,8.771427203939985429e-01,8.807528409568983196e-01,1.002839598580016700e+00,9.295266736226367454e-01,9.798367447560152321e-01,9.653920980321483158e-01,1.078404899125810834e+00,1.044526301876814278e+00,1.069030692051980536e+00,9.981214281450506709e-01,1.049184517616123413e+00,1.069520797406022128e+00,1.068594794857792962e+00,1.113363499325565886e+00,1.120018199261237024e+00,1.034009600552989294e+00,1.033094007770529732e+00,1.083616690649707559e+00,9.979781711775692621e-01,1.068349068377369759e+00,9.843355521900978289e-01,9.656700789027797827e-01,9.231293595680573061e-01,7.800380396058345100e-01,7.535912392576191721e-01,5.847158808821848464e-01,4.719443325757167185e-01,4.451740729620747850e-01,5.272316616899290764e-01,4.259940502045490018e-01,2.126696698990709899e-01,8.289001058176692638e-02,-1.143337703149667622e-01,8.723104804352718733e-03,1.403465435032301145e-01,-5.118228504016208991e-02,-4.397509932825316437e-01,-9.894173189257887691e-01,-1.551588100369835743e+00,-1.900096417423775774e+00,-2.346530078982681289e+00,-3.031581192949756254e+00,-3.311507707803166056e+00,-2.657547092141496758e+00,-1.334718277184443469e+00,1.864236533361698367e-01
-3.917197499849420783e-01,-1.444582395319891965e+00,-2.129098703808149473e+00,-2.424342717014490667e+00,-2.401211290394521747e+00,-2.318291222482757874e+00,-2.019280400759761562e+00,-1.531998892527167699e+00,-1.068133199755040286e+00,-8.752468011311135276e-01,-8.399040550727541188e-01,-6.221260363203831023e-01,-2.779297002886726986e-01,-9.549695955343687204e-02,-1.294102104421099853e-01,-1.295378810853980711e-01,-5.518222776756795400e-02,-6.513501533478668892e-02,-1.422336807732370034e-01,-1.119333703725008122e-01,-7.830159802909116007e-02,-9.507918262003307863e-02,-1.570183094661023182e-01,-1.318473717530456446e-01,-1.595900512015576700e-01,-1.406588074846990277e-01,-1.440347573674648773e-01,-1.749320124021644385e-01,-1.495610261885050030e-01,-1.461380132769475593e-01,-2.068672144771188659e-01,-2.317795770292757906e-01,-2.140373083971033874e-01,-1.970327932283607308e-01,-2.621585627351638026e-01,-2.540143678814268391e-01,-2.601099474630681474e-01,-3.057467768493299931e-01,-3.433987094807486873e-01,-3.730983910399946479e-01,-4.038491295360515654e-01,-4.321858494632185854e-01,-4.139365063093817798e-01,-4.116726575528449894e-01,-4.591186736791804113e-01,-4.631592965086905322e-01,-4.475541287909725607e-01,-4.283734736172050139e-01,-4.997147103421235581e-01,-4.836900227878811465e-01,-4.230522134510769083e-01,-4.374312814371240088e-01,-4.354969547302702249e-01,-3.851857069604294193e-01,-3.840288294271985148e-01,-3.301198726528014049e-01,-3.180309763815957758e-01,-2.745639565354688894e-01,-2.051569513248016063e-01,-1.355994099691293364e-01,-7.537990440610198295e-02,-9.044946733690273355e-02,-7.704540619225361264e-02,-7.604416054353513310e-02,-3.591444034057170165e-02,2.008338401251863470e-03,-2.979136766578571738e-02,-5.434900193918568156e-04,-2.825101651619643661e-02,-3.106647368020365452e-02,3.113508498392048018e-02,-3.718085105162693971e-04,3.395906182863278611e-02,9.013844627051098568e-02,-4.409942665533295170e-03,-1.097142625183411546e-02,4.938709466521346014e-02,4.328896180890362544e-02,5.148493482259602905e-02,9.290232459655128894e-02,7.427617041175749169e-02,7.767675076122593225e-02,7.582256568100881333e-02,7.837824170931578793e-02,9.457016398393613965e-02,9.105996958007339659e-02,1.414299383083084116e-01,1.781830042136658965e-01,1.381305785789235241e-01,2.466594653569387230e-01,2.091208916120884664e-01,1.672321788189257141e-01,2.390915031604744223e-01,2.258475464111686370e-01,2.011761099737810476e-01,2.525371044785370556e-01,2.925282029190723332e-01,2.386717391530904231e-01,2.714097261259638127e-01,3.488143447718599077e-01,3.509040643663525749e-01,2.804536464203841728e-01,3.124832344683792229e-01,3.138230998917450609e-01,3.291021479376332604e-01,2.597782827767076697e-01,3.284099293034358213e-01,4.043048976133633010e-01,3.877213880241632271e-01,4.718215636340920560e-01,5.531597896942758164e-01,6.395024722802412631e-01,7.931917258846508112e-01,9.324848837853657590e-01,1.036496332264063458e+00,1.168848145377611170e+00,1.321671842558598042e+00,1.585539254082998673e+00,1.725475935880693701e+00,1.789071660996018220e+00,1.899382362911807842e+00,1.998627742026820586e+00,2.254737192982436245e+00,2.400817606354127332e+00,2.429160080942876387e+00,2.588770175552309816e+00,2.761531981657663781e+00,2.672402262747584523e+00,2.283759255335766181e+00,1.909735705340058987e+00,1.618145507777462688e+00,6.559815714890768756e-01,-4.879351622592029147e-01,-8.696079640429166258e-01,-1.263348487174369428e+00,-1.375884254023099107e+00,-1.510633560010702370e+00,-2.106623355591492608e+00,-2.692445642048602927e+00,-2.857378713678354387e+00
-3.633334489640047682e-01,-1.472142403371037078e+00,-2.055128779901473468e+00,-2.365696505987663123e+00,-2.482487366638080672e+00,-2.447681809715117396e+00,-2.448332601809322995e+00,-2.411589400461305654e+00,-2.145148317372299829e+00,-1.686922802007179367e+00,-1.167646575475796755e+00,-7.665394077881049206e-01,-5.895934056413303370e-01,-5.251349000486326135e-01,-4.239312302707210489e-01,-1.402240894375650360e-01,2.396787701830359885e-01,4.356237926314000530e-01,4.667824083042493299e-01,4.568497876792138590e-01,4.528913118080878930e-01,4.979890430578013394e-01,4.871985845835868356e-01,4.607678715208224363e-01,5.004059430350122906e-01,4.694996793180136185e-01,4.327436689844589845e-01,4.611182523088031004e-01,4.894931000055127157e-01,5.429481345336728548e-01,5.250567144072272319e-01,4.806467759000289663e-01,5.365365233571695036e-01,5.131767147962297271e-01,4.483746813644886031e-01,5.017708674013571235e-01,5.228878395684003477e-01,4.453513175352646902e-01,3.829309802021887976e-01,4.125198683282397250e-01,4.794182399561181529e-01,4.419639008169592431e-01,3.559492345456372053e-01,3.684176421942970681e-01,3.905673610922053007e-01,3.398635284119835287e-01,3.346746919579460244e-01,3.358084476012875852e-01,2.470202046383487005e-01,2.366263023801499221e-01,3.183554024558157280e-01,2.788317587102583373e-01,2.286401434924387743e-01,3.144101786374277063e-01,2.888099083368642628e-01,1.464288584799922910e-01,1.638701281089433581e-01,1.992777795191745249e-01,1.268189205308936363e-01,1.254913900129984439e-01,1.413683999083574783e-01,8.819097552575939913e-02,7.030283503856239735e-02,8.863971513553901838e-02,9.875662077523680860e-02,1.225771726255689698e-01,1.110120545991967189e-01,8.273028157639578106e-02,1.394495659338868265e-01,1.832184572942180678e-01,1.773567550676095894e-01,2.002592726679677804e-01,1.798753475900923826e-01,1.941784418978432791e-01,2.626688370542610285e-01,2.602978382009068503e-01,3.020922032454808059e-01,3.554604406349020085e-01,3.296407653909675384e-01,3.640834138312775137e-01,4.301488201756561436e-01,4.989180800457112541e-01,5.471606617409728868e-01,4.940508398499822151e-01,5.033911087892680714e-01,5.767470642786647339e-01,5.875946135455166752e-01,5.985846121980222811e-01,5.615436773322864950e-01,5.544570553643750621e-01,6.753726020088373083e-01,7.362428662409539193e-01,7.517765925417895234e-01,7.841946440268741103e-01,7.519659642080115391e-01,7.039887126304250620e-01,6.536539174147324438e-01,6.576871503793765283e-01,7.320232989884688513e-01,7.197273622677978766e-01,7.003498695300437449e-01,7.404422710313844913e-01,7.112171272918894616e-01,6.973242428668470216e-01,7.644115204020773824e-01,7.829297930371018621e-01,7.758966053323833600e-01,7.930248578445917573e-01,7.361112835433643031e-01,6.953835030139015050e-01,7.467131091453639291e-01,6.635358424438795311e-01,4.829468830300034377e-01,4.355700745975635835e-01,4.770436245785205087e-01,5.440086896711223696e-01,5.584287941952257306e-01,4.346201561470314223e-01,3.012751059670903953e-01,2.404289856327425090e-01,1.857406674225643428e-01,8.511813790350213071e-02,6.270912530493344406e-02,2.332165049672543788e-01,2.661943552446208727e-01,-3.063409953909478067e-02,-4.266577566219901252e-01,-9.567938911390955203e-01,-1.576090424524933420e+00,-2.086379308655600617e+00,-2.618022289871462238e+00,-3.149332437018747211e+00,-3.544620495408849603e+00,-3.649972303868675993e+00,-3.186599178830531898e+00,-2.263440898745300522e+00,-1.070904716210965280e+00,1.243175593467545637e-01,7.526696750836274763e-01,9.034769039535865964e-01
1.679029807442122268e-01,-7.247209021011224994e-01,-1.364075558705986957e+00,-1.744617742865219201e+00,-1.625155454369372698e+00,-1.408493601222844616e+00,-1.014455324412577131e+00,-6.532739863649523748e-01,-5.349735857285468077e-01,-4.014843334891324833e-01,-1.027344503503188067e-01,-1.055813360429758152e-02,3.304315548523395485e-03,8.031193971691164002e-03,1.281360181743795845e-04,2.125010355407908058e-02,2.958704495795566602e-02,1.796338199008726266e-02,8.477655568687791909e-03,-3.203464979758273434e-02,1.951346161513128896e-03,-1.564216323995648583e-02,2.595503241546537332e-02,1.273703839964923645e-02,-2.687229190260656542e-02,-3.792700399912751763e-02,-3.062815165714025123e-02,-5.298428073396488358e-02,-6.069366999262959528e-02,-4.547498450229164879e-02,-4.611738771626378020e-02,-8.066717857658961544e-02,-9.073792103753786087e-02,-1.339883485788204154e-01,-1.066176387713806406e-01,-1.334029931438568961e-01,-1.639561764646170205e-01,-1.435809045281755680e-01,-1.777657302092231495e-01,-1.787694927516261800e-01,-1.286799028147816437e-01,-1.535138901155941316e-01,-8.618856521375675706e-02,-8.413495570624576758e-02,-8.629760953681137048e-02,-2.504037718972772220e-02,8.217684342313361090e-03,3.436863286979495447e-02,8.725787335146516221e-02,1.269887177725537719e-01,1.259882486020432180e-01,1.699861062129330302e-01,1.566328577258655763e-01,2.058627680605496502e-01,2.300338597587344158e-01,2.258277340254879750e-01,2.569782073960157343e-01,2.395105094501179255e-01,2.260841212115965448e-01,2.539258020570480667e-01,2.613756550559620528e-01,2.496932808421388761e-01,2.645226023422926342e-01,2.858584299621202418e-01,2.653976195804907401e-01,2.790134613841711020e-01,3.125196807408874844e-01,3.155291201525654010e-01,3.040825692386180945e-01,3.252063197059544830e-01,3.714689599968378775e-01,3.571305981014643582e-01,3.950574514857599362e-01,4.002738012370700704e-01,4.319871586435348187e-01,4.492361578231231500e-01,4.604120887003232965e-01,4.771776696599445700e-01,4.686091687838087050e-01,5.102381400197923966e-01,4.933948297080866241e-01,5.295867294096482381e-01,5.261541196881748261e-01,5.050699914189094031e-01,4.926060000329405275e-01,4.904632391482920406e-01,5.120464308951564458e-01,4.640095391682286241e-01,4.948220887159703318e-01,4.988190127111900019e-01,4.450679285170677235e-01,4.462904687319959596e-01,4.370901197039045449e-01,4.337683600600332201e-01,4.079349689008594515e-01,4.060143597045593467e-01,4.109751465270359283e-01,4.240368886963882811e-01,4.151891089701994497e-01,4.069569958475250937e-01,3.971253844140778533e-01,3.502662713181328158e-01,4.070026537880478967e-01,3.573604724517605025e-01,4.396957482872994039e-01,4.919993390268070366e-01,4.949722342926814456e-01,5.841692008467683772e-01,6.070339404783327009e-01,6.729516062392395526e-01,7.952113266019207316e-01,8.424706473116196914e-01,9.442706712051873730e-01,1.042164816671318883e+00,9.847570702139700760e-01,9.836831545909637819e-01,9.174666021274457961e-01,8.493217330918452213e-01,7.638078568617675534e-01,6.761372426916155698e-01,5.562960744582297057e-01,4.551149604675952531e-01,3.912307352601502863e-01,2.719299999795950495e-01,2.919253992093763239e-01,4.857272070510934014e-01,6.684589256918743727e-01,6.397788491031787261e-01,5.209379727341942878e-01,2.838732694255198807e-01,1.198177723617647739e-01,1.176501043387825352e-01,-3.105412909690476453e-01,-1.191263292112578531e+00,-2.221572634079419739e+00,-3.230173684312138693e+00,-3.818758680358440571e+00,-4.649366579821374579e+00,-5.001070932712811334e+00,-5.345640333621724416e+00
-8.004722783469636616e-02,-1.432506114372519512e+00,-1.501762367587147429e+00,-2.352905244007091223e+00,-2.417188836611519065e+00,-2.321297404467099756e+00,-2.418247602380438455e+00,-2.195839908868026047e+00,-1.917411690140209846e+00,-1.471201135229150747e+00,-9.557434084847419298e-01,-5.893632662316728998e-01,-3.818383700549966009e-01,-3.106753203181047973e-01,-1.375985221456464125e-01,1.601316137155575636e-01,4.069344688530381893e-01,5.723805275805288195e-01,6.311314090715492986e-01,5.575204590579507791e-01,5.194960750585257969e-01,5.735856355546634644e-01,5.526120232835363133e-01,5.300348763041832223e-01,6.048377049477563494e-01,6.160090162698349525e-01,5.882752240769026919e-01,5.673559563815558926e-01,5.424384762118147352e-01,6.009938646910555349e-01,5.944791245248381983e-01,4.767111458809347169e-01,4.845322084407297503e-01,5.290280751298443995e-01,4.908705806112048653e-01,5.017675626353771401e-01,5.530694540525866731e-01,5.145753689328096403e-01,4.441231881537031634e-01,4.345469809713570220e-01,4.446927348991863149e-01,4.307639434197249040e-01,4.444829456062214801e-01,4.388697543546775659e-01,3.893704419278748996e-01,3.481382815156641719e-01,2.564248860198669600e-01,2.257326251110808590e-01,3.293556756389244833e-01,2.546016482220090360e-01,1.125071406228549120e-01,1.774422660839471144e-01,1.909881980663725443e-01,1.211719892277132449e-01,1.550959590207625638e-01,1.753609315811338609e-01,1.282728884190154628e-01,8.775454698763215933e-02,5.141729407921218770e-02,1.716527489797350925e-02,1.820168083432512074e-02,4.805326854513032597e-02,2.973155704730440219e-02,6.304772207523345884e-03,5.490649662106772411e-02,8.216200635381923356e-02,5.411626723818957485e-02,6.989435640190908017e-02,9.797033706840874157e-02,1.064304375500648159e-01,1.213501942753610341e-01,1.298907026388247399e-01,1.132451622854128148e-01,1.036522823849719277e-01,1.414289523783932023e-01,2.313925174457439615e-01,2.791095502310070309e-01,2.501660786151125859e-01,2.727399303709419076e-01,3.583463902765224307e-01,3.706960441148018370e-01,4.136638406856179007e-01,5.185407806907338379e-01,5.317343578775782786e-01,5.531183870756980481e-01,6.249858534883543371e-01,5.844743602116792003e-01,5.316416130506234072e-01,5.869771832126644551e-01,6.153607938497357432e-01,6.265828961939998720e-01,7.083213834902115646e-01,7.171653511962088334e-01,6.556252971730629486e-01,6.595128065823661068e-01,6.424735638999505838e-01,6.134249202497217279e-01,6.387074795634660740e-01,6.133489400474217978e-01,5.595165470559513299e-01,6.017337897327603713e-01,6.836853969432159506e-01,7.092210606962183750e-01,7.094075321695163527e-01,7.426245717691956072e-01,7.479199332821028223e-01,7.561134339914514779e-01,8.118363591333701557e-01,7.660783593815769787e-01,6.606392901851562138e-01,6.779897880471940086e-01,6.514627072970546884e-01,5.100003159011731180e-01,3.966637183397199173e-01,3.715456227015239699e-01,4.454398729483459718e-01,4.433364957370412029e-01,3.144944023371529229e-01,2.679122965872345330e-01,2.423135583140142990e-01,1.794377095518183141e-01,9.647971049554217304e-02,3.142541577497162675e-02,1.845921590807537704e-01,2.677968615716114775e-01,6.186306095716312403e-03,-2.816867851592981253e-01,-6.755581809048090136e-01,-1.292622421295667623e+00,-1.888732793739319682e+00,-2.476415793741114424e+00,-2.951203251329330701e+00,-3.505935384732478344e+00,-3.879334182420694166e+00,-3.507650338996926909e+00,-3.006487429314799176e+00,-1.827523048898480384e+00,-4.010830044953548890e-01,-1.406807416158002977e-01,1.880187132237640890e+00
3.814422059364078188e-01,-9.365989468408859597e-01,-2.150778784865548854e+00,-2.998746085225259428e+00,-3.293401793743112371e+00,-3.185965801741368342e+00,-2.817409810616961163e+00,-2.452641515154626806e+00,-1.842409199675354436e+00,-1.185341694578917693e+00,-9.362143162407099428e-01,-7.602764139229508666e-01,-4.302312527116717300e-01,-1.630991865171743660e-02,2.537915339754538424e-01,2.928225601330030625e-01,2.933690327916663732e-01,3.524234289288653565e-01,4.027860137461327650e-01,3.338058414185539058e-01,3.583967027509049053e-01,3.589440441935707327e-01,3.989458746326648986e-01,3.799258104574214645e-01,2.522273709123434848e-01,2.912908135100061857e-01,3.160060985150889290e-01,2.445478767815586485e-01,2.497977146447165619e-01,1.543134755185621154e-01,1.520330544094435909e-01,1.665292191999147575e-01,1.596028040708572515e-01,1.191706797692060338e-01,5.549170893402682880e-02,5.000065895919170167e-03,-1.073000179024075629e-01,-5.090193071220200371e-02,-7.872080645995904735e-02,1.885655903268490530e-02,1.271435475336485377e-02,-9.850959178345927714e-02,-1.065635978123827543e-01,-9.161036415573117764e-02,-1.805223998441807254e-01,-2.093482313412631801e-01,-2.542022790675643740e-01,-2.452325957337453399e-01,-2.805949047199253754e-01,-3.710824480529656966e-01,-3.105904732462005935e-01,-2.898790906659276523e-01,-3.216681715762734761e-01,-3.809095855045059320e-01,-3.842815624461741741e-01,-2.805855177926528388e-01,-1.695310301332308978e-01,-1.284541099464940050e-01,-1.159672690746888779e-01,-5.793571578949616163e-02,-7.946760186537682458e-02,7.856339384051816421e-02,3.879125104081970754e-02,9.635422480378495746e-02,1.129941292350355869e-01,2.733297096738428467e-01,3.219769904145328709e-01,3.542474113844351624e-01,3.757392309256547547e-01,3.923948097214618458e-01,4.927135809860551108e-01,5.083439676371462879e-01,5.612804784437694927e-01,5.243875613537868352e-01,5.345523908791953716e-01,5.246968492095483994e-01,4.136587484869461706e-01,4.959320795827686923e-01,4.814039415053984472e-01,4.097285322885010350e-01,5.658060886749378682e-01,5.428681092851118661e-01,6.280998577209975231e-01,5.667407105513270205e-01,5.056151894656887302e-01,5.684527092917198710e-01,5.222799098715088517e-01,4.563833096538241207e-01,4.819076666983360124e-01,5.684870988849699547e-01,6.068971556486079111e-01,6.621279481135381451e-01,6.351676484687923674e-01,6.775168654371369614e-01,7.904489366576313847e-01,7.344563548440248280e-01,7.663565924671761342e-01,7.928132136871682834e-01,7.470173106030029153e-01,7.522508046791116509e-01,8.193064703291060846e-01,8.868168642624747466e-01,9.273585877934698019e-01,9.668686418522050019e-01,8.757452339631087712e-01,8.840474043198439658e-01,8.792798824930549983e-01,9.649330964661921861e-01,1.023573600400048633e+00,1.059040100562825604e+00,1.025447797181405107e+00,8.930357134372699512e-01,9.948011840781147974e-01,9.955138328726451658e-01,8.548092464269192448e-01,8.872160803300667142e-01,8.685245203177378581e-01,7.942760068622156666e-01,7.640523750800913838e-01,6.797388397839461138e-01,6.118970489102691923e-01,3.874018986656250774e-01,4.035438736185171238e-01,3.280724291955570138e-01,2.969529867522738842e-01,2.072516783547762032e-01,1.098794248033092419e-01,-1.111970907166328348e-01,-2.058917614105599536e-01,-4.958842999225093751e-02,6.595085057741451040e-02,4.137497321607674916e-03,-5.054464391636841469e-01,-8.491591499032618007e-01,-1.575181222437076700e+00,-2.047695595728191709e+00,-2.582502430126895732e+00,-3.076676840586398232e+00,-3.922464260781555634e+00,-3.500502870149919232e+00
-7.601000836780147374e-02,-1.897227798034058610e+00,-3.167100595600367718e+00,-3.562591299408362833e+00,-3.491645400038639213e+00,-3.371418091801700267e+00,-2.775904807162023147e+00,-2.150452503664878279e+00,-1.503118093152528756e+00,-1.126453603590771735e+00,-9.259065464479436791e-01,-4.107833968215477416e-01,-1.912796655864573703e-02,9.654701763461162600e-02,4.872669543985103102e-02,4.438186006325492428e-02,1.896652181508860779e-01,1.418613209464580638e-01,1.293924505120307711e-01,9.873031164141810034e-02,6.768411359907428038e-02,6.767723893262556079e-02,7.566992103108335921e-02,9.040604124142734288e-02,-4.540711776481493045e-02,1.095377120328474285e-01,-9.955708550283270952e-04,-6.107697992619279259e-02,-1.603236413130443294e-02,-5.853357083358656787e-03,7.795829321738501072e-03,-6.942307639249417628e-02,-1.131315352337154967e-01,-1.312264384353920565e-01,-2.799994568158995500e-01,-1.582070730896384392e-01,-2.723359474405973035e-01,-2.835027253747524623e-01,-2.759748932911058605e-01,-3.792533517212082206e-01,-2.759386624131345278e-01,-3.460326602939369778e-01,-4.064073883872826864e-01,-4.513083893722445450e-01,-4.493819600711518314e-01,-4.138678060548480198e-01,-5.092230555032196682e-01,-4.654291001272843342e-01,-3.625621326528332689e-01,-3.954550012885748589e-01,-3.880158987931264791e-01,-3.675962716380576922e-01,-2.406136169168251460e-01,-2.520649217597544789e-01,-9.308140925991569004e-02,-6.676660789498059523e-02,-1.300492607703508940e-01,-1.603482386200735799e-02,1.062360199371105429e-01,1.584741397990636069e-01,1.491557801621233026e-01,1.968265387363005159e-01,2.171450914840329927e-01,1.888313699794597900e-01,2.781754892009558611e-01,3.513596540342413532e-01,2.845115695032631731e-01,2.542581704341561055e-01,3.578801000979407454e-01,3.715071902000107174e-01,4.079826202705285065e-01,3.176338593193767101e-01,4.646562498779689410e-01,4.739421300129226799e-01,4.216332973310437104e-01,4.351961601633533849e-01,4.525232573590034502e-01,4.530089672112694865e-01,5.241284997751755048e-01,4.948658699348313927e-01,5.232983099915078373e-01,5.385558190176374938e-01,5.807213022306126904e-01,5.171965387829497995e-01,5.803412762413452386e-01,6.681825171508603001e-01,6.024859367273022182e-01,7.151972371499648595e-01,7.724814642902781969e-01,7.997693379871803065e-01,8.571580525942796847e-01,6.826781506254229193e-01,8.205109881041247055e-01,8.635859850795104542e-01,1.011840587800145297e+00,9.910255266304581756e-01,9.185800002617212634e-01,9.402137329621886863e-01,9.724875173989381283e-01,9.839892426741747578e-01,1.050612099394087728e+00,1.007214202931791869e+00,1.005764898392491169e+00,1.034183991907853484e+00,1.070833204323268006e+00,1.014619992394794501e+00,9.683014377000918049e-01,9.479554464685353565e-01,9.412203904959164369e-01,9.402294384862054377e-01,1.013682412581476733e+00,9.730155516674765526e-01,9.165859948638090948e-01,9.693282901773414562e-01,9.380085496886831908e-01,8.588610314961030445e-01,8.088097301393184502e-01,6.807453523577792209e-01,5.095945765853322484e-01,4.542900119539580173e-01,5.101287500502654781e-01,5.069354775542798119e-01,3.160918282163453497e-01,1.943290331280478900e-01,6.152448809313389166e-02,-1.142784305093521718e-01,9.942225995614076273e-03,2.583979100740045887e-01,2.443483971170874736e-01,-8.677161778111452950e-03,-5.880591269513467667e-01,-1.113883429050652296e+00,-1.726120615537047209e+00,-2.419973030964516436e+00,-2.890778146366429713e+00,-3.079178798862148625e+00,-2.074201344128055791e+00,-4.871005948818267761e-01,9.122464588164989063e-01,1.716131070548792215e+00
7.978538276516728978e-01,-4.200716241039585963e-01,-1.498139233741500709e+00,-2.340262095369897821e+00,-2.831733022540354305e+00,-2.926600397558300592e+00,-2.837763885719388313e+00,-2.733193226156533928e+00,-2.560014866088425656e+00,-2.209253672773884070e+00,-1.680941747245084716e+00,-1.144901717873397340e+00,-7.827261662291753463e-01,-6.125818208242843621e-01,-5.089357048607423550e-01,-2.817433651461135335e-01,1.113635397023941542e-01,4.201653265610196808e-01,4.789919535315390053e-01,4.711525338311978728e-01,4.943345307264279120e-01,4.914746124903276447e-01,4.701895433317258566e-01,4.142302463717912886e-01,4.140656362150216818e-01,5.050059195627097930e-01,5.126714338156794781e-01,4.777532863649530670e-01,5.292953750302682447e-01,5.167868728006863588e-01,3.895978408922180503e-01,3.674335076563603475e-01,4.797775498636951408e-01,4.903420261244541001e-01,4.113338707644493275e-01,4.140862107394404079e-01,4.181768585960882190e-01,4.009557399659500199e-01,4.262467117977071784e-01,3.885924778879775721e-01,3.563828558483080333e-01,3.790932053194225881e-01,3.471890210003694133e-01,3.204284924266385115e-01,3.017573057462423769e-01,2.672614322090463013e-01,2.846234122109680964e-01,3.060671618726233945e-01,3.243943712543349012e-01,3.327893602516076577e-01,2.807525250047723797e-01,2.443789338090330276e-01,2.476894243141799234e-01,1.877333870033323082e-01,1.178268814865695568e-01,1.180790787937440051e-01,1.051270606549077891e-01,1.256945097775580833e-01,1.618908601676040671e-01,8.359845940109872364e-02,3.789364330249551938e-02,4.615491815522476671e-02,5.852526245213124367e-03,1.565838679911110698e-02,2.496964577519125705e-02,4.027106098078020446e-03,6.626914250640866810e-02,1.353166804161609893e-01,1.180757459506545926e-01,8.531812480463774051e-02,6.966307833525370308e-02,6.436983253977546227e-02,1.016731929391216371e-01,1.528520451947982806e-01,1.813374856600526996e-01,2.288124693866186443e-01,2.975935406975130926e-01,3.539793564015526472e-01,3.548890257814275029e-01,3.313477079105892620e-01,3.874696408323586305e-01,4.810143603415538704e-01,4.861883099953694387e-01,4.797609301297507955e-01,5.480292790731355890e-01,5.959194746987170888e-01,6.571026131070158982e-01,7.141562783075889875e-01,6.477068838655817284e-01,6.316863587572637551e-01,6.681016901320846468e-01,6.624121352505325522e-01,7.091653570114566651e-01,6.778174372806886616e-01,6.529836136961166826e-01,7.473650368120806631e-01,7.712103951299879023e-01,8.062046432497622650e-01,8.038973405763673030e-01,6.914733777724140218e-01,7.189097004143633063e-01,7.809082955164303730e-01,7.434069044821610683e-01,7.745488195548509980e-01,8.111412278058131031e-01,7.671270892738198954e-01,8.029020663589427897e-01,8.640358856262766452e-01,7.857054281886639568e-01,7.338691264723786745e-01,8.090498687530114363e-01,8.173228070564544367e-01,7.615782248350468908e-01,7.450558365911262859e-01,6.618132643524914371e-01,5.232141236508942583e-01,4.853644481890417306e-01,5.169715123664705425e-01,5.469163868762179082e-01,5.250380419969233881e-01,4.070349061299636806e-01,2.872442184362703488e-01,2.196346616859227718e-01,1.437869896497632749e-01,5.702978979197338705e-02,7.368421674073055705e-02,2.151731767509626470e-01,1.925842125382500047e-01,-1.093394630300651982e-01,-4.993470499344803692e-01,-1.004126942422094215e+00,-1.528053450906819322e+00,-2.009887193727672106e+00,-2.507658932976066346e+00,-2.885054291314167685e+00,-3.314416987223732125e+00,-3.323209504385492341e+00,-2.690086551314326613e+00,-1.987226620313939485e+00,-2.241354322891982997e-01
2.338546353004619660e-01,-8.222180443506326153e-01,-1.722525894288201131e+00,-2.265136050575239146e+00,-2.602024414020708942e+00,-2.734632903977442631e+00,-2.691828589966102747e+00,-2.694248990903093333e+00,-2.602024339182408497e+00,-2.225475412270215614e+00,-1.754538741160232007e+00,-1.208234887053621032e+00,-8.243091823317231226e-01,-7.963366948652691457e-01,-6.638612270175066055e-01,-4.430895378866340772e-01,-2.317374398871817065e-01,1.586889421434977965e-01,3.056428239640252009e-01,2.099496984391293064e-01,2.338546602045740164e-01,2.670947443227872364e-01,3.168592265071674130e-01,3.349993436841282035e-01,2.973444736842678626e-01,3.248601564835004174e-01,2.636335826626534096e-01,2.189525925440864440e-01,3.185077368981668045e-01,3.485211038560531160e-01,3.349771063470478039e-01,3.369362601015963299e-01,2.973444676343295345e-01,2.769520683839550301e-01,2.824986449156378643e-01,3.053387552104523950e-01,2.761812055981146541e-01,2.239012148729994101e-01,2.852461319837132359e-01,2.758786436078402016e-01,2.126913874239791391e-01,2.971628363911560378e-01,2.979559311950504830e-01,2.166093475278240976e-01,2.338546412453637036e-01,2.112245590635544179e-01,1.762944482381632594e-01,1.990042619177300187e-01,1.703648137379284166e-01,1.409450201897742005e-01,1.874830854105611067e-01,2.104852157814235680e-01,1.492015395265630096e-01,1.201208800809243638e-01,1.470131011947414801e-01,1.025947296475959863e-01,2.222188160638742527e-02,5.657017994484928730e-02,1.206882103183420096e-01,5.244254762942804349e-02,1.058606441496467987e-03,4.541404511459204429e-02,9.797003729456466026e-04,-4.155095547723300364e-02,1.058597244603026732e-03,1.426877794192621396e-03,2.771776860246064067e-02,7.376245949323476103e-02,6.454842343756900247e-02,9.306105270579517752e-02,1.174486497181930211e-01,1.061082377549700806e-01,1.492015335947838861e-01,2.198645101116555867e-01,2.421871046450678189e-01,2.351944844324948547e-01,2.973444759195171816e-01,3.904866187649056464e-01,4.122994975273943097e-01,4.807097700654708872e-01,5.724670697769567163e-01,5.188393103264441475e-01,4.656719293264782178e-01,5.465825706243089277e-01,6.571201804291603166e-01,7.172608073428019537e-01,7.103898510751071038e-01,7.031845615190510657e-01,7.417732869386701733e-01,7.636010740151176757e-01,7.660983564187590078e-01,7.960656398578593862e-01,8.052631314861748990e-01,7.965925521067208637e-01,8.353467307440005651e-01,8.419674380561024130e-01,8.264263909819885567e-01,8.511708851568824397e-01,8.136603005519821297e-01,7.842508191140215024e-01,8.052631147470784567e-01,8.088139364321116354e-01,8.965365420981503686e-01,9.570163292100879460e-01,9.110794924486254054e-01,9.357379984986040622e-01,9.676802210422030814e-01,9.442924776608412341e-01,9.110794959884960242e-01,8.697709902809694915e-01,8.940563404625763155e-01,8.988521666959663481e-01,7.840998282005001707e-01,6.912800869466727560e-01,6.663554913075451225e-01,6.569344964245460439e-01,6.782834747295727329e-01,7.074291873665360386e-01,6.432536086035623990e-01,4.729914446438991948e-01,3.819975681948138413e-01,3.666622874341566862e-01,2.874370634942561287e-01,3.814710556058356072e-01,5.724670906461553077e-01,4.430254008544455280e-01,1.150488531504775674e-01,-2.655753786146913820e-01,-7.819826610900031394e-01,-1.365269919092473749e+00,-1.962976004509674688e+00,-2.485551815666449116e+00,-2.898310207940825833e+00,-3.266948409267791398e+00,-3.314423545518885739e+00,-2.715800394191952627e+00,-1.713166813137703359e+00,-5.953183900762357705e-01,4.901288687577363690e-01,1.023500213716876939e+00
-4.881978434032319125e-02,-1.437340519784752857e+00,-1.651851324633937246e+00,-2.507921493492539788e+00,-2.611393924614977990e+00,-2.576482392591857185e+00,-2.585277009320963160e+00,-2.396591170937835358e+00,-2.193460866244268281e+00,-1.732933108903045749e+00,-1.180358687544869944e+00,-7.444579122456945752e-01,-5.224362779796332124e-01,-4.848068542880312748e-01,-3.530941525469279973e-01,-5.550304680306776539e-02,2.386823343598111491e-01,4.060524929925860560e-01,4.590324091846866850e-01,4.370181836588120095e-01,4.005493643770765000e-01,3.856839780452834265e-01,4.197895208286255841e-01,4.630662516005570328e-01,4.451338071457409118e-01,4.613983445477969347e-01,4.691778186063239597e-01,3.503839672479338585e-01,3.390810632035852201e-01,3.894601088873875239e-01,3.815110288875533939e-01,4.623338536789177167e-01,4.542147324700125388e-01,4.096924706640372449e-01,4.303137009476484809e-01,3.724618570299934595e-01,4.011074448358645794e-01,4.241849914762200191e-01,3.607924170357000304e-01,3.867211766637359549e-01,3.458022736018281917e-01,3.337512032287460739e-01,3.868050117662096277e-01,3.279877222724980612e-01,3.260832817664603978e-01,3.299581867961713377e-01,2.307375376331546324e-01,2.200008920936263601e-01,2.841894270016623314e-01,3.006760635185765640e-01,2.963652825647533628e-01,2.938120943087347281e-01,2.409435576590274741e-01,1.343904674126754073e-01,8.529163000674674922e-02,8.822370094335300894e-02,5.647310328965592097e-02,4.859549867209168178e-02,1.308913594069962272e-01,1.255812199851630007e-01,3.071065257852048647e-02,2.431265875918388331e-02,8.072396444835788776e-03,7.884636441976372589e-03,6.499412272642809962e-02,4.512443786990144590e-02,8.644661893802330077e-02,1.377144274213949748e-01,8.935351617829490056e-02,1.072022047185122173e-01,1.077345284596246122e-01,1.420129392989087358e-01,2.506101755419771759e-01,2.576648085962592316e-01,2.545591140806499619e-01,2.922057164915154992e-01,3.765629540089274752e-01,4.765616303228019657e-01,4.204379029866021633e-01,3.980896637306059471e-01,4.635097602478229217e-01,4.747007999313094251e-01,5.019720902949864616e-01,4.960635204410578925e-01,5.863199771571820929e-01,6.824120717010166981e-01,5.838131945405786727e-01,6.178316215459238592e-01,6.495826819294896470e-01,6.142377486760677296e-01,7.572672474469948067e-01,7.031096522070863220e-01,6.075645327332886980e-01,7.135594507128897312e-01,6.960747665886559687e-01,6.878141083178725967e-01,7.594154410323680215e-01,7.460747709524422344e-01,7.652791706216560685e-01,8.076555802531931727e-01,7.714151450484358907e-01,7.526175724185628635e-01,7.504832753424064418e-01,7.506091944968160679e-01,8.339716545784969792e-01,8.182007518335662200e-01,7.491055135960666966e-01,8.140594174771549341e-01,7.801593224239886659e-01,7.735867490828620685e-01,8.674725725520773256e-01,7.992270276655610850e-01,7.224717897869187277e-01,6.745033078991570230e-01,5.489710895921797729e-01,5.169274840065490872e-01,5.661155925823787571e-01,5.546623284873796189e-01,4.829180134298830529e-01,4.325721512481214837e-01,3.978446052684692091e-01,3.047236826569392765e-01,2.349625429757941086e-01,1.554493155505701774e-01,1.244403549673422232e-01,3.022888197032246871e-01,3.243615249830504865e-01,-1.452462783705563143e-02,-4.153663336361344549e-01,-8.595810611902614529e-01,-1.437594743277476717e+00,-1.914382830635265265e+00,-2.433747667411298554e+00,-3.037786049982684311e+00,-3.325809587382330790e+00,-3.741414235722009707e+00,-3.353434589749805017e+00,-2.107488149635062147e+00,-1.708857103128982313e+00,8.016787806430807350e-01
-2.443784130535248122e-02,-1.241596096955741801e+00,-2.086072878335571534e+00,-2.719014606192166283e+00,-3.090631306865891048e+00,-3.031785899885653279e+00,-2.890147899163082901e+00,-2.819072375580099710e+00,-2.440416465196482143e+00,-1.844744020523711336e+00,-1.386121410910048368e+00,-1.046530984433965417e+00,-8.539924141295001103e-01,-7.186324860129753578e-01,-3.581296275349057368e-01,1.174357860669029696e-01,4.402965555060871505e-01,5.926841107516569451e-01,6.150154135437346792e-01,6.172526793854951066e-01,6.063322485607316459e-01,5.040420229923741058e-01,5.419608287661272783e-01,6.203821078021147795e-01,5.115592260255515944e-01,4.233806888974178673e-01,4.377121709634752000e-01,4.909988540876749630e-01,4.073733071058789346e-01,3.435796749467304179e-01,5.112301120194094883e-01,5.024170028053887016e-01,3.823234726719784149e-01,4.660310461944903171e-01,4.500087761002638520e-01,3.264321231628385389e-01,3.479844291367902853e-01,3.129137052339919789e-01,2.767568885555608538e-01,3.437315916429400930e-01,2.897405208901031037e-01,2.886815857465566681e-01,3.193488001532315268e-01,2.979179066374584295e-01,3.651079568777167439e-01,3.053853970864753298e-01,1.883427132882323773e-01,1.689974737991444820e-01,1.185564734569105050e-01,7.738850375602135401e-02,5.262653944210939766e-02,-9.426927365068664411e-03,-1.560367085135751231e-02,2.535106982641270601e-02,1.029476747587557139e-02,-2.909524488931815311e-02,-6.629074486406885680e-02,-6.723281243821171982e-02,-4.850474569805063307e-02,-1.371421815682823953e-01,-2.104006702572725485e-01,-1.074623157384135275e-01,-1.996542996297728800e-02,-9.155738889208775433e-02,-1.510209868767475039e-01,-1.260916098035255173e-01,-1.217978782471466070e-01,-5.501509836815304810e-02,6.625633201703989839e-02,9.540490813072427523e-02,1.161696596568677631e-01,1.156189092463505430e-01,1.014706596582634068e-01,1.643263782696000042e-01,1.779728252551179279e-01,1.967882059623733970e-01,3.055017064812176608e-01,3.173296537068081569e-01,3.237156820088803455e-01,4.469590377298090500e-01,4.532696398889277667e-01,5.025524097608701224e-01,6.404841871756095095e-01,6.364055282221312559e-01,6.947536510629228612e-01,6.820597526165355085e-01,6.145582658089403516e-01,6.871058398415230695e-01,6.734039485158869187e-01,6.773901717619064122e-01,6.708103800234241909e-01,6.114153966287920738e-01,6.602467226037582737e-01,6.561813032385547251e-01,6.345281066927245250e-01,6.790267723964270585e-01,6.269254701339198599e-01,6.060213187023056891e-01,6.896780981917305375e-01,6.414963312841832632e-01,6.340162755049953969e-01,7.179103857689079771e-01,7.484030702809585378e-01,8.779150511252246103e-01,8.715190688679235187e-01,7.290756943484143493e-01,7.401434485742400815e-01,7.434706034775242500e-01,7.499449416465530094e-01,8.329849534668032351e-01,8.614116245671583627e-01,8.606169427082348555e-01,8.508696582714365686e-01,7.735085942281517690e-01,7.209166727451215007e-01,6.681919320204023904e-01,5.216052992765997098e-01,4.678159680503792828e-01,5.869531902914106869e-01,6.475544419061183277e-01,5.715737929909328052e-01,4.524709411054838037e-01,3.795405308998756611e-01,3.348594012042632739e-01,1.978976141826899737e-01,3.717442280067458360e-01,7.079840105329926470e-01,5.005836905900272749e-01,2.368314758099051842e-01,-4.783041314256319954e-02,-7.291190529905977602e-01,-1.321381232320263166e+00,-1.798788870252506777e+00,-2.384711419718873238e+00,-3.020251269936870653e+00,-3.474473997102397238e+00,-3.195399453744364404e+00,-2.251579431940706311e+00,-1.230773112457671070e+00,4.052736830026093529e-02
